,cavity_before,
Wavenumbers [1/cm],Transmittance,
7496.969,0.07283846,
7495.040,0.07245431,
7493.112,0.07184888,
7491.183,0.07131529,
7489.254,0.07073997,
7487.326,0.07029115,
7485.397,0.06993442,
7483.468,0.06958003,
7481.539,0.06950073,
7479.611,0.06994336,
7477.682,0.0705931,
7475.753,0.07092669,
7473.824,0.07111304,
7471.896,0.07110626,
7469.967,0.07057159,
7468.038,0.06998269,
7466.110,0.06986389,
7464.181,0.07008893,
7462.252,0.07041022,
7460.323,0.0709134,
7458.395,0.0717253,
7456.466,0.07237937,
7454.537,0.07226323,
7452.608,0.07149442,
7450.680,0.07067591,
7448.751,0.07038464,
7446.822,0.07090495,
7444.893,0.07185856,
7442.965,0.07264532,
7441.036,0.07302693,
7439.107,0.07306311,
7437.179,0.07289343,
7435.250,0.07285547,
7433.321,0.07331916,
7431.392,0.0739933,
7429.464,0.07450688,
7427.535,0.07498278,
7425.606,0.07529873,
7423.677,0.0754064,
7421.749,0.07578567,
7419.820,0.07649222,
7417.891,0.07716405,
7415.963,0.07795467,
7414.034,0.07913408,
7412.105,0.08023109,
7410.176,0.0806684,
7408.248,0.08077339,
7406.319,0.08115853,
7404.390,0.08180113,
7402.461,0.08253397,
7400.533,0.08340926,
7398.604,0.08433549,
7396.675,0.08528156,
7394.747,0.0861524,
7392.818,0.08667003,
7390.889,0.08712117,
7388.960,0.08792677,
7387.032,0.08877498,
7385.103,0.08959448,
7383.174,0.09073755,
7381.245,0.09198622,
7379.317,0.09312353,
7377.388,0.09431718,
7375.459,0.09547894,
7373.531,0.09651248,
7371.602,0.09764273,
7369.673,0.09895124,
7367.744,0.1002515,
7365.816,0.101583,
7363.887,0.1030178,
7361.958,0.1043851,
7360.029,0.1057187,
7358.101,0.1070866,
7356.172,0.1082364,
7354.243,0.1092672,
7352.314,0.1106185,
7350.386,0.1122892,
7348.457,0.1140505,
7346.528,0.1156859,
7344.600,0.1170619,
7342.671,0.1186184,
7340.742,0.1206939,
7338.813,0.1226729,
7336.885,0.1241788,
7334.956,0.1257931,
7333.027,0.1277712,
7331.098,0.1296387,
7329.170,0.1312795,
7327.241,0.1330373,
7325.312,0.1349292,
7323.384,0.1370817,
7321.455,0.1396796,
7319.526,0.1420603,
7317.597,0.143884,
7315.669,0.1456078,
7313.740,0.1474742,
7311.811,0.1494774,
7309.882,0.1514396,
7307.954,0.1534217,
7306.025,0.1555872,
7304.096,0.157618,
7302.168,0.1592728,
7300.239,0.1609552,
7298.310,0.1632037,
7296.381,0.1655566,
7294.453,0.1674949,
7292.524,0.1696003,
7290.595,0.1719312,
7288.666,0.1740059,
7286.738,0.176153,
7284.809,0.1783896,
7282.880,0.1800413,
7280.952,0.1813668,
7279.023,0.1830387,
7277.094,0.1847614,
7275.165,0.1861493,
7273.237,0.1873777,
7271.308,0.1885643,
7269.379,0.1896595,
7267.450,0.190863,
7265.522,0.1922823,
7263.593,0.1935156,
7261.664,0.194454,
7259.736,0.1953703,
7257.807,0.1963125,
7255.878,0.1972453,
7253.949,0.1980875,
7252.021,0.1987867,
7250.092,0.199391,
7248.163,0.1999478,
7246.234,0.2006339,
7244.306,0.2013142,
7242.377,0.2014606,
7240.448,0.2012061,
7238.519,0.2010852,
7236.591,0.201002,
7234.662,0.2007551,
7232.733,0.2003604,
7230.805,0.1996498,
7228.876,0.1985873,
7226.947,0.1976801,
7225.018,0.1972331,
7223.090,0.196696,
7221.161,0.1958571,
7219.232,0.1950944,
7217.303,0.19427,
7215.375,0.1931326,
7213.446,0.1917629,
7211.517,0.1902085,
7209.589,0.1884619,
7207.660,0.1868051,
7205.731,0.1855905,
7203.802,0.1844254,
7201.874,0.1826456,
7199.945,0.1804032,
7198.016,0.178375,
7196.087,0.1767327,
7194.159,0.1750407,
7192.230,0.173123,
7190.301,0.1713418,
7188.373,0.1697787,
7186.444,0.1678515,
7184.515,0.1653012,
7182.586,0.1626461,
7180.658,0.1602946,
7178.729,0.1582372,
7176.800,0.1563854,
7174.871,0.1546232,
7172.943,0.1527882,
7171.014,0.1506507,
7169.085,0.1482026,
7167.157,0.1460193,
7165.228,0.1443447,
7163.299,0.1424494,
7161.370,0.1400044,
7159.442,0.1375761,
7157.513,0.1354288,
7155.584,0.133346,
7153.655,0.1314059,
7151.727,0.1297875,
7149.798,0.1281424,
7147.869,0.1260675,
7145.941,0.123753,
7144.012,0.1216547,
7142.083,0.1199254,
7140.154,0.1183462,
7138.226,0.1166891,
7136.297,0.1149703,
7134.368,0.1131162,
7132.439,0.1110405,
7130.511,0.1092699,
7128.582,0.1080504,
7126.653,0.1066531,
7124.724,0.1047605,
7122.796,0.1029235,
7120.867,0.1013848,
7118.938,0.09990036,
7117.010,0.09843167,
7115.081,0.09698089,
7113.152,0.09563433,
7111.223,0.09466774,
7109.295,0.09376231,
7107.366,0.09243399,
7105.437,0.09095955,
7103.508,0.08983652,
7101.580,0.0889726,
7099.651,0.08787803,
7097.722,0.08644354,
7095.794,0.08505382,
7093.865,0.08404002,
7091.936,0.08313596,
7090.007,0.08194563,
7088.079,0.08070973,
7086.150,0.07977562,
7084.221,0.078982,
7082.292,0.07812127,
7080.364,0.0773804,
7078.435,0.07680701,
7076.506,0.07612646,
7074.578,0.07542058,
7072.649,0.07486963,
7070.720,0.07424966,
7068.791,0.07345217,
7066.863,0.07269077,
7064.934,0.07194274,
7063.005,0.07112013,
7061.076,0.07044791,
7059.148,0.06991037,
7057.219,0.06941507,
7055.290,0.06902499,
7053.362,0.06850264,
7051.433,0.06779353,
7049.504,0.06723405,
7047.575,0.06682026,
7045.647,0.06635823,
7043.718,0.06584987,
7041.789,0.06531174,
7039.860,0.06476531,
7037.932,0.06425185,
7036.003,0.06373703,
7034.074,0.06336757,
7032.146,0.0634587,
7030.217,0.06381273,
7028.288,0.06379882,
7026.359,0.06319432,
7024.431,0.06229192,
7022.502,0.06164832,
7020.573,0.06176787,
7018.644,0.06235648,
7016.716,0.06254912,
7014.787,0.06211142,
7012.858,0.06144899,
7010.929,0.06084916,
7009.001,0.0604281,
7007.072,0.0603122,
7005.143,0.06060455,
7003.215,0.0610353,
7001.286,0.06115437,
6999.357,0.06101144,
6997.428,0.06085091,
6995.500,0.06089249,
6993.571,0.0611634,
6991.642,0.06121174,
6989.713,0.06093298,
6987.785,0.06078966,
6985.856,0.06096576,
6983.927,0.06110841,
6981.999,0.06102011,
6980.070,0.06109601,
6978.141,0.06152743,
6976.212,0.06194477,
6974.284,0.06216859,
6972.355,0.0624677,
6970.426,0.06286058,
6968.497,0.06302406,
6966.569,0.06312512,
6964.640,0.06344341,
6962.711,0.06364194,
6960.783,0.06362692,
6958.854,0.06380616,
6956.925,0.06414571,
6954.996,0.06447757,
6953.068,0.06492139,
6951.139,0.0654237,
6949.210,0.0658652,
6947.281,0.06627632,
6945.353,0.06675161,
6943.424,0.06729304,
6941.495,0.06784622,
6939.567,0.06843133,
6937.638,0.06899325,
6935.709,0.06947237,
6933.780,0.0698991,
6931.852,0.0704623,
6929.923,0.07130383,
6927.994,0.07221575,
6926.065,0.07297643,
6924.137,0.07359186,
6922.208,0.07433007,
6920.279,0.07531239,
6918.350,0.07634846,
6916.422,0.07741095,
6914.493,0.07828374,
6912.564,0.07881229,
6910.636,0.07936701,
6908.707,0.08010013,
6906.778,0.08097189,
6904.849,0.08202369,
6902.921,0.08323148,
6900.992,0.08464266,
6899.063,0.08609468,
6897.134,0.08729813,
6895.206,0.08837835,
6893.277,0.08955747,
6891.348,0.09073406,
6889.420,0.09177606,
6887.491,0.09280862,
6885.562,0.09412756,
6883.633,0.09576995,
6881.705,0.09746046,
6879.776,0.09913656,
6877.847,0.1007961,
6875.918,0.102351,
6873.990,0.1039894,
6872.061,0.105757,
6870.132,0.1075247,
6868.204,0.1094341,
6866.275,0.111371,
6864.346,0.1129734,
6862.417,0.1143817,
6860.489,0.116005,
6858.560,0.1178384,
6856.631,0.119656,
6854.702,0.1214642,
6852.774,0.1234203,
6850.845,0.125633,
6848.916,0.1279527,
6846.988,0.1301317,
6845.059,0.1322132,
6843.130,0.1343188,
6841.201,0.1364065,
6839.273,0.1384094,
6837.344,0.1403516,
6835.415,0.1423182,
6833.486,0.1443978,
6831.558,0.1465842,
6829.629,0.1487162,
6827.700,0.1507291,
6825.772,0.1528457,
6823.843,0.1552058,
6821.914,0.1574552,
6819.985,0.1592278,
6818.057,0.1607661,
6816.128,0.1624925,
6814.199,0.164404,
6812.270,0.1663037,
6810.342,0.1681585,
6808.413,0.169923,
6806.484,0.1715578,
6804.555,0.1731615,
6802.627,0.1747389,
6800.698,0.176206,
6798.769,0.1774978,
6796.841,0.178697,
6794.912,0.1799679,
6792.983,0.1811656,
6791.054,0.1820553,
6789.126,0.1826409,
6787.197,0.1831031,
6785.268,0.1836108,
6783.339,0.1841522,
6781.411,0.1847768,
6779.482,0.1853691,
6777.553,0.1854159,
6775.625,0.1849476,
6773.696,0.1846212,
6771.767,0.1846023,
6769.838,0.1844339,
6767.910,0.1837383,
6765.981,0.1826378,
6764.052,0.1816341,
6762.123,0.1809931,
6760.195,0.1804079,
6758.266,0.1796469,
6756.337,0.1788684,
6754.409,0.1778472,
6752.480,0.1762739,
6750.551,0.1746016,
6748.622,0.1731687,
6746.694,0.1717143,
6744.765,0.1701914,
6742.836,0.1686576,
6740.907,0.1668939,
6738.979,0.1647962,
6737.050,0.1625428,
6735.121,0.1603926,
6733.193,0.1584703,
6731.264,0.1566365,
6729.335,0.1546897,
6727.406,0.1526302,
6725.478,0.1505854,
6723.549,0.1485589,
6721.620,0.1464279,
6719.691,0.1442289,
6717.763,0.1421235,
6715.834,0.1400328,
6713.905,0.1378972,
6711.977,0.1358251,
6710.048,0.1336534,
6708.119,0.1314037,
6706.190,0.1293982,
6704.262,0.127472,
6702.333,0.1254363,
6700.404,0.1234091,
6698.475,0.1213356,
6696.547,0.1193012,
6694.618,0.1174505,
6692.689,0.1155665,
6690.760,0.1134824,
6688.832,0.1113666,
6686.903,0.1094688,
6684.974,0.1077845,
6683.046,0.1061362,
6681.117,0.1045189,
6679.188,0.1029588,
6677.259,0.1013767,
6675.331,0.09979659,
6673.402,0.09823871,
6671.473,0.09662971,
6669.544,0.09506387,
6667.616,0.09355432,
6665.687,0.0918559,
6663.758,0.09015702,
6661.830,0.08885307,
6659.901,0.08773578,
6657.972,0.08650494,
6656.043,0.08517386,
6654.115,0.08382291,
6652.186,0.08268341,
6650.257,0.08180875,
6648.328,0.08089745,
6646.400,0.07982324,
6644.471,0.0786284,
6642.542,0.07741119,
6640.614,0.07641036,
6638.685,0.07560243,
6636.756,0.07480089,
6634.827,0.07408814,
6632.899,0.07344081,
6630.970,0.07261963,
6629.041,0.0716375,
6627.112,0.07068731,
6625.184,0.06992665,
6623.255,0.06940607,
6621.326,0.06883417,
6619.398,0.06793565,
6617.469,0.06697249,
6615.540,0.06628465,
6613.611,0.06584497,
6611.683,0.0653911,
6609.754,0.0646589,
6607.825,0.06384942,
6605.896,0.06343014,
6603.968,0.06320602,
6602.039,0.06266176,
6600.110,0.06190598,
6598.182,0.06135504,
6596.253,0.06114338,
6594.324,0.06111268,
6592.395,0.06093333,
6590.467,0.06050487,
6588.538,0.06007097,
6586.609,0.05977375,
6584.680,0.05955934,
6582.752,0.05929429,
6580.823,0.05890599,
6578.894,0.05860494,
6576.965,0.05854681,
6575.037,0.05851695,
6573.108,0.05822964,
6571.179,0.05775591,
6569.251,0.05739771,
6567.322,0.05712681,
6565.393,0.05688814,
6563.464,0.05687539,
6561.536,0.05690182,
6559.607,0.05673297,
6557.678,0.05664881,
6555.749,0.05673089,
6553.821,0.05671996,
6551.892,0.05664309,
6549.963,0.05660491,
6548.035,0.05653054,
6546.106,0.05642808,
6544.177,0.05640882,
6542.248,0.05651657,
6540.320,0.05671892,
6538.391,0.05696438,
6536.462,0.05712513,
6534.533,0.05718997,
6532.605,0.05738188,
6530.676,0.05772341,
6528.747,0.05792716,
6526.819,0.05785597,
6524.890,0.05774648,
6522.961,0.05784746,
6521.032,0.05815254,
6519.104,0.05855757,
6517.175,0.05886435,
6515.246,0.05895226,
6513.317,0.05900547,
6511.389,0.05922098,
6509.460,0.05957843,
6507.531,0.05998177,
6505.603,0.06049057,
6503.674,0.0612166,
6501.745,0.06200254,
6499.816,0.06254642,
6497.888,0.06283037,
6495.959,0.06312667,
6494.030,0.0636005,
6492.101,0.06421944,
6490.173,0.06486288,
6488.244,0.06539121,
6486.315,0.06588375,
6484.386,0.06648359,
6482.458,0.06710181,
6480.529,0.06780004,
6478.600,0.06872394,
6476.672,0.06956709,
6474.743,0.07009864,
6472.814,0.070593,
6470.885,0.07122172,
6468.957,0.07189044,
6467.028,0.07263612,
6465.099,0.07356913,
6463.170,0.07459268,
6461.242,0.07558201,
6459.313,0.07659969,
6457.384,0.0777177,
6455.456,0.07890621,
6453.527,0.0801174,
6451.598,0.08130233,
6449.669,0.08238327,
6447.741,0.08345697,
6445.812,0.08471231,
6443.883,0.08604195,
6441.954,0.08730993,
6440.026,0.08863414,
6438.097,0.09003019,
6436.168,0.09134959,
6434.240,0.0926442,
6432.311,0.09400364,
6430.382,0.09534167,
6428.453,0.09684221,
6426.525,0.09873324,
6424.596,0.1006251,
6422.667,0.1021606,
6420.738,0.1036815,
6418.810,0.1054851,
6416.881,0.1074408,
6414.952,0.1094422,
6413.024,0.1113892,
6411.095,0.1132436,
6409.166,0.1151581,
6407.237,0.1171184,
6405.309,0.1190597,
6403.380,0.121217,
6401.451,0.1237627,
6399.522,0.1263508,
6397.594,0.1285344,
6395.665,0.1304501,
6393.736,0.1324877,
6391.808,0.1346773,
6389.879,0.1368843,
6387.950,0.13911,
6386.021,0.1414242,
6384.093,0.1438957,
6382.164,0.1464683,
6380.235,0.1489023,
6378.306,0.1511678,
6376.378,0.1535473,
6374.449,0.1560238,
6372.520,0.1582734,
6370.591,0.1603827,
6368.663,0.1627097,
6366.734,0.1651608,
6364.805,0.1673705,
6362.877,0.1693336,
6360.948,0.1712704,
6359.019,0.1732288,
6357.090,0.175166,
6355.162,0.1770545,
6353.233,0.1789006,
6351.304,0.1807193,
6349.375,0.1824777,
6347.447,0.1841432,
6345.518,0.185702,
6343.589,0.1872135,
6341.661,0.1885938,
6339.732,0.1895929,
6337.803,0.1903352,
6335.874,0.1911,
6333.946,0.1918002,
6332.017,0.1923248,
6330.088,0.1928954,
6328.159,0.1936335,
6326.231,0.1942131,
6324.302,0.1943901,
6322.373,0.1943141,
6320.445,0.1942074,
6318.516,0.1940849,
6316.587,0.1937539,
6314.658,0.1931818,
6312.730,0.1925508,
6310.801,0.1919271,
6308.872,0.1911776,
6306.943,0.1901108,
6305.015,0.188742,
6303.086,0.1873244,
6301.157,0.1860093,
6299.229,0.1846832,
6297.300,0.1832016,
6295.371,0.1815169,
6293.442,0.1796344,
6291.514,0.1776866,
6289.585,0.1758056,
6287.656,0.1739059,
6285.727,0.1718174,
6283.799,0.1695019,
6281.870,0.1670735,
6279.941,0.1646587,
6278.013,0.16234,
6276.084,0.1600973,
6274.155,0.1577481,
6272.226,0.1552414,
6270.298,0.1527288,
6268.369,0.1502481,
6266.440,0.1477558,
6264.511,0.1452561,
6262.583,0.1427712,
6260.654,0.1403202,
6258.725,0.1378842,
6256.796,0.1354834,
6254.868,0.1331724,
6252.939,0.130867,
6251.010,0.1283961,
6249.082,0.1257998,
6247.153,0.1233779,
6245.224,0.1213022,
6243.295,0.1193983,
6241.367,0.117429,
6239.438,0.1153238,
6237.509,0.1130989,
6235.580,0.1108311,
6233.652,0.1086537,
6231.723,0.1066063,
6229.794,0.1046923,
6227.866,0.1029037,
6225.937,0.1010278,
6224.008,0.09897751,
6222.079,0.09701034,
6220.151,0.09527043,
6218.222,0.09369273,
6216.293,0.09223925,
6214.364,0.09091806,
6212.436,0.08962192,
6210.507,0.08811492,
6208.578,0.08643363,
6206.650,0.08491573,
6204.721,0.08359889,
6202.792,0.0822224,
6200.863,0.08083118,
6198.935,0.07955521,
6197.006,0.07827336,
6195.077,0.07702801,
6193.148,0.07585887,
6191.220,0.07459653,
6189.291,0.07332479,
6187.362,0.07226746,
6185.434,0.07135651,
6183.505,0.07039027,
6181.576,0.06937499,
6179.647,0.06836627,
6177.719,0.06736407,
6175.790,0.06651278,
6173.861,0.06585305,
6171.932,0.06518221,
6170.004,0.06441472,
6168.075,0.06365713,
6166.146,0.06295954,
6164.218,0.06223631,
6162.289,0.06144908,
6160.360,0.06072888,
6158.431,0.06017908,
6156.503,0.05968662,
6154.574,0.05917908,
6152.645,0.05873238,
6150.716,0.05827277,
6148.788,0.0576806,
6146.859,0.05710226,
6144.930,0.05670654,
6143.001,0.056287,
6141.073,0.0555997,
6139.144,0.05485738,
6137.215,0.05438587,
6135.287,0.05418394,
6133.358,0.05410342,
6131.429,0.05399075,
6129.500,0.05363204,
6127.572,0.05304233,
6125.643,0.05250115,
6123.714,0.05214179,
6121.785,0.05194937,
6119.857,0.05186085,
6117.928,0.05177974,
6115.999,0.05165371,
6114.071,0.05146319,
6112.142,0.05126001,
6110.213,0.05110846,
6108.284,0.05099018,
6106.356,0.05082928,
6104.427,0.05059645,
6102.498,0.05036223,
6100.569,0.0501459,
6098.641,0.04997659,
6096.712,0.04997527,
6094.783,0.05009467,
6092.855,0.05016452,
6090.926,0.05021119,
6088.997,0.05035798,
6087.068,0.05051202,
6085.140,0.05051753,
6083.211,0.0504711,
6081.282,0.05050423,
6079.353,0.05049179,
6077.425,0.0503645,
6075.496,0.05032462,
6073.567,0.05044974,
6071.639,0.05058775,
6069.710,0.05067578,
6067.781,0.05082775,
6065.852,0.05118478,
6063.924,0.05163673,
6061.995,0.05194805,
6060.066,0.05215921,
6058.137,0.05234229,
6056.209,0.05247443,
6054.280,0.05271778,
6052.351,0.05307684,
6050.423,0.05334652,
6048.494,0.05358605,
6046.565,0.05392631,
6044.636,0.0543464,
6042.708,0.05479776,
6040.779,0.05523022,
6038.850,0.05563025,
6036.921,0.05600328,
6034.993,0.056388,
6033.064,0.05681108,
6031.135,0.05721154,
6029.206,0.05761737,
6027.278,0.05811515,
6025.349,0.05861144,
6023.420,0.05903282,
6021.492,0.05956065,
6019.563,0.06027459,
6017.634,0.06107049,
6015.705,0.06193471,
6013.777,0.06277061,
6011.848,0.06346978,
6009.919,0.06413802,
6007.990,0.06485422,
6006.062,0.06562632,
6004.133,0.06647967,
6002.204,0.06739381,
6000.276,0.06836972,
5998.347,0.06940877,
5996.418,0.07043924,
5994.489,0.07146346,
5992.561,0.07255707,
5990.632,0.07372712,
5988.703,0.07493481,
5986.774,0.07609381,
5984.846,0.07721123,
5982.917,0.07845008,
5980.988,0.07980477,
5979.060,0.08116356,
5977.131,0.08257948,
5975.202,0.08408771,
5973.273,0.08560746,
5971.345,0.08709144,
5969.416,0.08856013,
5967.487,0.0900908,
5965.558,0.0917655,
5963.630,0.09356102,
5961.701,0.09535199,
5959.772,0.09706066,
5957.844,0.09878881,
5955.915,0.1007171,
5953.986,0.102812,
5952.057,0.1048537,
5950.129,0.1068537,
5948.200,0.1089562,
5946.271,0.1111138,
5944.342,0.1133581,
5942.414,0.1157536,
5940.485,0.1181372,
5938.556,0.1204469,
5936.627,0.1227893,
5934.699,0.1251912,
5932.770,0.127642,
5930.841,0.1301174,
5928.913,0.1326124,
5926.984,0.1352159,
5925.055,0.1379383,
5923.126,0.1406427,
5921.198,0.1432084,
5919.269,0.1456539,
5917.340,0.1481541,
5915.411,0.1507993,
5913.483,0.1534712,
5911.554,0.1560642,
5909.625,0.1585527,
5907.697,0.1609579,
5905.768,0.163378,
5903.839,0.1658733,
5901.910,0.1683618,
5899.982,0.1706853,
5898.053,0.17275,
5896.124,0.1747134,
5894.195,0.1767483,
5892.267,0.1786962,
5890.338,0.1804639,
5888.409,0.1821356,
5886.481,0.1836658,
5884.552,0.1850782,
5882.623,0.1864233,
5880.694,0.1876327,
5878.766,0.1886875,
5876.837,0.1895378,
5874.908,0.1901633,
5872.979,0.1906854,
5871.051,0.1910937,
5869.122,0.1913068,
5867.193,0.1914002,
5865.265,0.1914146,
5863.336,0.1912733,
5861.407,0.1908908,
5859.478,0.1902347,
5857.550,0.1893851,
5855.621,0.1884382,
5853.692,0.1874425,
5851.763,0.1864122,
5849.835,0.1852657,
5847.906,0.1838885,
5845.977,0.1822862,
5844.049,0.1805538,
5842.120,0.1787141,
5840.191,0.1767119,
5838.262,0.1745701,
5836.334,0.1723898,
5834.405,0.1702035,
5832.476,0.1680074,
5830.547,0.1657843,
5828.619,0.1634204,
5826.690,0.1608943,
5824.761,0.1583465,
5822.832,0.1558108,
5820.904,0.1531865,
5818.975,0.1504393,
5817.046,0.1476946,
5815.118,0.1450998,
5813.189,0.1426195,
5811.260,0.1400931,
5809.331,0.1374851,
5807.403,0.1349148,
5805.474,0.1323932,
5803.545,0.1298133,
5801.616,0.1272096,
5799.688,0.1246753,
5797.759,0.1221722,
5795.830,0.1196872,
5793.902,0.1172732,
5791.973,0.1149121,
5790.044,0.112598,
5788.115,0.1103446,
5786.187,0.108119,
5784.258,0.1059429,
5782.329,0.1037988,
5780.400,0.1015926,
5778.472,0.09943297,
5776.543,0.09752338,
5774.614,0.09576595,
5772.686,0.09393769,
5770.757,0.09205161,
5768.828,0.09017449,
5766.899,0.08831181,
5764.971,0.08656588,
5763.042,0.08490924,
5761.113,0.08319478,
5759.184,0.08154813,
5757.256,0.0801357,
5755.327,0.07882989,
5753.398,0.07742894,
5751.470,0.0759206,
5749.541,0.07442411,
5747.612,0.07304715,
5745.683,0.07187576,
5743.755,0.0708154,
5741.826,0.06966905,
5739.897,0.06848935,
5737.968,0.06741733,
5736.040,0.06642281,
5734.111,0.06539282,
5732.182,0.06431686,
5730.254,0.06331161,
5728.325,0.06242174,
5726.396,0.06156699,
5724.467,0.06074089,
5722.539,0.06004832,
5720.610,0.05939972,
5718.681,0.05862321,
5716.752,0.05781518,
5714.824,0.05705475,
5712.895,0.05627314,
5710.966,0.05546363,
5709.037,0.05471396,
5707.109,0.05414489,
5705.180,0.05375308,
5703.251,0.05341783,
5701.323,0.05299987,
5699.394,0.05243525,
5697.465,0.05181893,
5695.536,0.05126111,
5693.608,0.05076469,
5691.679,0.05026638,
5689.750,0.04976912,
5687.821,0.04932856,
5685.893,0.0489103,
5683.964,0.04847001,
5682.035,0.04809723,
5680.107,0.04787723,
5678.178,0.04767212,
5676.249,0.04733237,
5674.320,0.04692028,
5672.392,0.04653793,
5670.463,0.04625036,
5668.534,0.04606737,
5666.605,0.04589812,
5664.677,0.04571948,
5662.748,0.04561249,
5660.819,0.04551193,
5658.891,0.04529184,
5656.962,0.04507435,
5655.033,0.04500582,
5653.104,0.04496862,
5651.176,0.04477629,
5649.247,0.04450152,
5647.318,0.04438366,
5645.389,0.0443876,
5643.461,0.04432672,
5641.532,0.0442515,
5639.603,0.04423206,
5637.675,0.04418239,
5635.746,0.04413681,
5633.817,0.04418734,
5631.888,0.04421054,
5629.960,0.04414339,
5628.031,0.04419784,
5626.102,0.04447282,
5624.173,0.04472776,
5622.245,0.04476307,
5620.316,0.04466887,
5618.387,0.04460459,
5616.459,0.04468503,
5614.530,0.04489697,
5612.601,0.04510214,
5610.672,0.04523824,
5608.744,0.04532958,
5606.815,0.04547708,
5604.886,0.04573844,
5602.957,0.04603888,
5601.029,0.04633047,
5599.100,0.04658414,
5597.171,0.04679487,
5595.242,0.04701102,
5593.314,0.0472657,
5591.385,0.04760431,
5589.456,0.04801629,
5587.528,0.04839299,
5585.599,0.04870432,
5583.670,0.04905104,
5581.741,0.04948127,
5579.813,0.04990419,
5577.884,0.05026857,
5575.955,0.05069937,
5574.026,0.05126437,
5572.098,0.05181035,
5570.169,0.05226444,
5568.240,0.0527782,
5566.312,0.05346119,
5564.383,0.05420801,
5562.454,0.05488435,
5560.525,0.05550924,
5558.597,0.05611178,
5556.668,0.05671626,
5554.739,0.05741948,
5552.810,0.05821296,
5550.882,0.05900612,
5548.953,0.05979946,
5547.024,0.06061957,
5545.096,0.0614896,
5543.167,0.06242236,
5541.238,0.06333493,
5539.309,0.06419872,
5537.381,0.06512332,
5535.452,0.06615362,
5533.523,0.06727485,
5531.594,0.06847032,
5529.666,0.06967443,
5527.737,0.07089438,
5525.808,0.07219401,
5523.880,0.07356346,
5521.951,0.074996,
5520.022,0.07648828,
5518.093,0.07796049,
5516.165,0.07936003,
5514.236,0.08075182,
5512.307,0.08222576,
5510.378,0.08386064,
5508.450,0.08566879,
5506.521,0.08748777,
5504.592,0.0892683,
5502.663,0.09116156,
5500.735,0.09317621,
5498.806,0.09527436,
5496.877,0.09741955,
5494.949,0.09951724,
5493.020,0.1016959,
5491.091,0.104087,
5489.162,0.106496,
5487.234,0.1088186,
5485.305,0.1112596,
5483.376,0.1138644,
5481.447,0.116436,
5479.519,0.1189984,
5477.590,0.1217244,
5475.661,0.1245545,
5473.733,0.1273599,
5471.804,0.1302207,
5469.875,0.1332352,
5467.946,0.1363015,
5466.018,0.1393045,
5464.089,0.1422737,
5462.160,0.1452843,
5460.231,0.1483629,
5458.303,0.1514572,
5456.374,0.1544762,
5454.445,0.1573958,
5452.517,0.1602981,
5450.588,0.1632608,
5448.659,0.1662404,
5446.730,0.1691555,
5444.802,0.1719988,
5442.873,0.1747516,
5440.944,0.1773751,
5439.015,0.1799069,
5437.087,0.1823302,
5435.158,0.1845589,
5433.229,0.18665,
5431.301,0.1886929,
5429.372,0.1906102,
5427.443,0.1922914,
5425.514,0.1937857,
5423.586,0.1952445,
5421.657,0.1966334,
5419.728,0.1977079,
5417.799,0.1983694,
5415.871,0.1987486,
5413.942,0.198974,
5412.013,0.1990728,
5410.085,0.1990185,
5408.156,0.1987741,
5406.227,0.1982798,
5404.298,0.1975006,
5402.370,0.1964969,
5400.441,0.195318,
5398.512,0.1939152,
5396.583,0.1922622,
5394.655,0.1904438,
5392.726,0.1885662,
5390.797,0.1865981,
5388.868,0.1843947,
5386.940,0.1819573,
5385.011,0.1794642,
5383.082,0.1769314,
5381.154,0.1742135,
5379.225,0.171362,
5377.296,0.1684984,
5375.367,0.1655687,
5373.439,0.1625519,
5371.510,0.1594686,
5369.581,0.1563084,
5367.652,0.1531594,
5365.724,0.1500557,
5363.795,0.1469384,
5361.866,0.1438729,
5359.938,0.1409106,
5358.009,0.1379198,
5356.080,0.1348104,
5354.151,0.1317096,
5352.223,0.1287408,
5350.294,0.1258371,
5348.365,0.1229444,
5346.436,0.1201041,
5344.508,0.1173086,
5342.579,0.1145527,
5340.650,0.1118647,
5338.722,0.1092841,
5336.793,0.1068563,
5334.864,0.1045131,
5332.935,0.1021354,
5331.007,0.09972268,
5329.078,0.0973689,
5327.149,0.09510604,
5325.220,0.0928724,
5323.292,0.09069383,
5321.363,0.08862515,
5319.434,0.08665228,
5317.506,0.08480072,
5315.577,0.08300326,
5313.648,0.08115676,
5311.719,0.07934724,
5309.791,0.07763229,
5307.862,0.07598197,
5305.933,0.07443371,
5304.004,0.07295829,
5302.076,0.07144956,
5300.147,0.06990658,
5298.218,0.0684239,
5296.290,0.06705762,
5294.361,0.06578865,
5292.432,0.06458672,
5290.503,0.06342214,
5288.575,0.06225997,
5286.646,0.06112247,
5284.717,0.06007381,
5282.788,0.05912175,
5280.860,0.05820801,
5278.931,0.0572513,
5277.002,0.05624054,
5275.073,0.05529118,
5273.145,0.05445955,
5271.216,0.05364839,
5269.287,0.05277645,
5267.359,0.05189604,
5265.430,0.05112185,
5263.501,0.05047195,
5261.572,0.04986901,
5259.644,0.04924884,
5257.715,0.04861036,
5255.786,0.04799262,
5253.857,0.04740058,
5251.929,0.04681624,
5250.000,0.04622047,
5248.071,0.04563583,
5246.143,0.04512637,
5244.214,0.04467326,
5242.285,0.04423903,
5240.356,0.04383869,
5238.428,0.04344801,
5236.499,0.04302965,
5234.570,0.04260102,
5232.641,0.0421975,
5230.713,0.04184387,
5228.784,0.04154445,
5226.855,0.04123459,
5224.927,0.04088301,
5222.998,0.04059082,
5221.069,0.04038587,
5219.140,0.0401483,
5217.212,0.03984418,
5215.283,0.03956003,
5213.354,0.03933775,
5211.425,0.03916194,
5209.497,0.03899196,
5207.568,0.03881558,
5205.639,0.03870353,
5203.711,0.03862661,
5201.782,0.03844786,
5199.853,0.03821592,
5197.924,0.0380786,
5195.996,0.03800503,
5194.067,0.03788409,
5192.138,0.03771311,
5190.209,0.03757249,
5188.281,0.03751862,
5186.352,0.03753489,
5184.423,0.0375633,
5182.495,0.03756351,
5180.566,0.03755031,
5178.637,0.03754912,
5176.708,0.03755767,
5174.780,0.03758281,
5172.851,0.03761651,
5170.922,0.03763641,
5168.993,0.03767086,
5167.065,0.03776235,
5165.136,0.03788582,
5163.207,0.03799092,
5161.278,0.03808237,
5159.350,0.03817036,
5157.421,0.03826432,
5155.492,0.0383928,
5153.564,0.03854383,
5151.635,0.03871072,
5149.706,0.03890269,
5147.777,0.039087,
5145.849,0.03925024,
5143.920,0.03943356,
5141.991,0.03966488,
5140.062,0.03993899,
5138.134,0.04026389,
5136.205,0.04061063,
5134.276,0.04089052,
5132.348,0.04111319,
5130.419,0.0413687,
5128.490,0.04167399,
5126.561,0.04204801,
5124.633,0.04249552,
5122.704,0.04292417,
5120.775,0.04331509,
5118.846,0.04372998,
5116.918,0.04416308,
5114.989,0.0446186,
5113.060,0.04514793,
5111.132,0.04572208,
5109.203,0.046253,
5107.274,0.04675827,
5105.345,0.04732471,
5103.417,0.04795796,
5101.488,0.04861471,
5099.559,0.04927376,
5097.630,0.04992651,
5095.702,0.05058538,
5093.773,0.05129651,
5091.844,0.05207734,
5089.916,0.05287787,
5087.987,0.05367688,
5086.058,0.05451978,
5084.129,0.05543989,
5082.201,0.05643018,
5080.272,0.05744169,
5078.343,0.05844549,
5076.414,0.05948226,
5074.486,0.06054568,
5072.557,0.06161945,
5070.628,0.0627914,
5068.700,0.06410736,
5066.771,0.06549501,
5064.842,0.06686695,
5062.913,0.06821153,
5060.985,0.06960467,
5059.056,0.07112493,
5057.127,0.07278657,
5055.198,0.07449561,
5053.270,0.07615822,
5051.341,0.07784068,
5049.412,0.07964106,
5047.483,0.08154774,
5045.555,0.08350355,
5043.626,0.08551902,
5041.697,0.0876566,
5039.769,0.08988023,
5037.840,0.0921246,
5035.911,0.09442579,
5033.982,0.09682231,
5032.054,0.09933543,
5030.125,0.1019904,
5028.196,0.1047238,
5026.267,0.1074447,
5024.339,0.1101916,
5022.410,0.1130745,
5020.481,0.1161193,
5018.553,0.1192532,
5016.624,0.1223846,
5014.695,0.1254724,
5012.766,0.1285682,
5010.838,0.1317946,
5008.909,0.1351852,
5006.980,0.1386132,
5005.051,0.1420203,
5003.123,0.145465,
5001.194,0.1489221,
4999.265,0.1523536,
4997.337,0.1557811,
4995.408,0.1591572,
4993.479,0.1624289,
4991.550,0.1656524,
4989.622,0.1688726,
4987.693,0.172018,
4985.764,0.1750154,
4983.835,0.1779074,
4981.907,0.1807494,
4979.978,0.1834747,
4978.049,0.1859838,
4976.121,0.1882643,
4974.192,0.1903483,
4972.263,0.1922518,
4970.334,0.1939394,
4968.406,0.1953613,
4966.477,0.1965336,
4964.548,0.1974746,
4962.619,0.1981402,
4960.691,0.1984897,
4958.762,0.1985416,
4956.833,0.1983421,
4954.904,0.1979016,
4952.976,0.1972076,
4951.047,0.1962543,
4949.118,0.1950335,
4947.190,0.1935472,
4945.261,0.1918171,
4943.332,0.1898619,
4941.403,0.187675,
4939.475,0.1852738,
4937.546,0.1827227,
4935.617,0.1800348,
4933.688,0.1771672,
4931.760,0.1741337,
4929.831,0.1710038,
4927.902,0.1677878,
4925.974,0.1644381,
4924.045,0.1609793,
4922.116,0.1574903,
4920.187,0.1539912,
4918.259,0.150489,
4916.330,0.1470166,
4914.401,0.143557,
4912.472,0.1400761,
4910.544,0.1365795,
4908.615,0.1330622,
4906.686,0.1295567,
4904.758,0.1261653,
4902.829,0.122903,
4900.900,0.1196697,
4898.971,0.1164288,
4897.043,0.1132512,
4895.114,0.1101861,
4893.185,0.1071919,
4891.256,0.1042268,
4889.328,0.1013656,
4887.399,0.09869152,
4885.470,0.09611421,
4883.542,0.09351126,
4881.613,0.09092735,
4879.684,0.08847042,
4877.755,0.08614987,
4875.827,0.08390268,
4873.898,0.08170693,
4871.969,0.07959191,
4870.040,0.07757559,
4868.112,0.07564291,
4866.183,0.07374644,
4864.254,0.07186435,
4862.326,0.07002928,
4860.397,0.06828285,
4858.468,0.06665889,
4856.539,0.0651283,
4854.611,0.06362125,
4852.682,0.06216422,
4850.753,0.06080012,
4848.824,0.0594626,
4846.896,0.05812969,
4844.967,0.05687031,
4843.038,0.05567757,
4841.109,0.0545264,
4839.181,0.05345327,
4837.252,0.05243825,
4835.323,0.05142229,
4833.395,0.05040958,
4831.466,0.04942824,
4829.537,0.04847706,
4827.608,0.04755965,
4825.680,0.04670171,
4823.751,0.04591051,
4821.822,0.0451377,
4819.893,0.04432727,
4817.965,0.04351661,
4816.036,0.04278277,
4814.107,0.04213737,
4812.179,0.04156272,
4810.250,0.04103,
4808.321,0.04048259,
4806.392,0.03989824,
4804.464,0.03931631,
4802.535,0.03879072,
4800.606,0.03834485,
4798.677,0.03792581,
4796.749,0.03748062,
4794.820,0.03703235,
4792.891,0.03658468,
4790.963,0.0361269,
4789.034,0.03567967,
4787.105,0.03527497,
4785.176,0.0349605,
4783.248,0.03470557,
4781.319,0.03439564,
4779.390,0.03402158,
4777.461,0.03368499,
4775.533,0.03340751,
4773.604,0.03314096,
4771.675,0.03287175,
4769.747,0.03261053,
4767.818,0.0323892,
4765.889,0.03219095,
4763.960,0.03197117,
4762.032,0.03178648,
4760.103,0.03167646,
4758.174,0.03156576,
4756.245,0.03139943,
4754.317,0.03120591,
4752.388,0.03102385,
4750.459,0.03084614,
4748.531,0.0306726,
4746.602,0.03056174,
4744.673,0.03052958,
4742.744,0.03049494,
4740.816,0.03040031,
4738.887,0.03027008,
4736.958,0.03016276,
4735.029,0.03011319,
4733.101,0.03011301,
4731.172,0.03013736,
4729.243,0.03014253,
4727.314,0.03010221,
4725.386,0.03005994,
4723.457,0.03006471,
4721.528,0.03009776,
4719.600,0.03013825,
4717.671,0.03022372,
4715.742,0.03033676,
4713.813,0.03038244,
4711.885,0.03036288,
4709.956,0.03038588,
4708.027,0.03050018,
4706.098,0.03064366,
4704.170,0.03075266,
4702.241,0.03086123,
4700.312,0.03100625,
4698.384,0.03115366,
4696.455,0.03129224,
4694.526,0.03144053,
4692.597,0.03161348,
4690.669,0.03181772,
4688.740,0.03201747,
4686.811,0.03217647,
4684.882,0.03232628,
4682.954,0.03254902,
4681.025,0.03284439,
4679.096,0.03310616,
4677.168,0.03331054,
4675.239,0.03353287,
4673.310,0.03381706,
4671.381,0.0341638,
4669.453,0.03453118,
4667.524,0.03486329,
4665.595,0.03516879,
4663.666,0.03550183,
4661.738,0.03590785,
4659.809,0.03638379,
4657.880,0.03685923,
4655.952,0.03730711,
4654.023,0.03778182,
4652.094,0.03831495,
4650.165,0.03889957,
4648.237,0.03949328,
4646.308,0.04005176,
4644.379,0.0406054,
4642.450,0.04121402,
4640.522,0.04190021,
4638.593,0.04263136,
4636.664,0.04336257,
4634.736,0.0441089,
4632.807,0.04488505,
4630.878,0.045677,
4628.949,0.04650905,
4627.021,0.04739285,
4625.092,0.04829726,
4623.163,0.04921261,
4621.234,0.05015038,
4619.306,0.05113509,
4617.377,0.052201,
4615.448,0.05334403,
4613.519,0.05454076,
4611.591,0.05580179,
4609.662,0.05712575,
4607.733,0.05847798,
4605.805,0.05986591,
4603.876,0.06133272,
4601.947,0.06289289,
4600.018,0.06452972,
4598.090,0.06621362,
4596.161,0.0679455,
4594.232,0.06976837,
4592.303,0.07170191,
4590.375,0.07372782,
4588.446,0.07582954,
4586.517,0.07799741,
4584.589,0.08022986,
4582.660,0.08255644,
4580.731,0.08500205,
4578.802,0.08754546,
4576.874,0.09018444,
4574.945,0.09294716,
4573.016,0.09581916,
4571.087,0.09877694,
4569.159,0.1018565,
4567.230,0.1050788,
4565.301,0.1083919,
4563.373,0.1117774,
4561.444,0.1152556,
4559.515,0.1188267,
4557.586,0.1225071,
4555.658,0.1262798,
4553.729,0.130079,
4551.800,0.1338863,
4549.871,0.1377467,
4547.943,0.1416963,
4546.014,0.1456742,
4544.085,0.1495845,
4542.157,0.1534516,
4540.228,0.1573528,
4538.299,0.1612434,
4536.370,0.1650335,
4534.442,0.1687227,
4532.513,0.1723055,
4530.584,0.1757268,
4528.655,0.1789599,
4526.727,0.1820021,
4524.798,0.1848609,
4522.869,0.187532,
4520.940,0.1899493,
4519.012,0.1920528,
4517.083,0.1938593,
4515.154,0.195381,
4513.226,0.1965789,
4511.297,0.1974272,
4509.368,0.1979201,
4507.439,0.1980544,
4505.511,0.1978361,
4503.582,0.1972512,
4501.653,0.1962944,
4499.724,0.1950055,
4497.796,0.1933871,
4495.867,0.19143,
4493.938,0.1891763,
4492.010,0.1866145,
4490.081,0.1837257,
4488.152,0.1806004,
4486.223,0.1773088,
4484.295,0.1738399,
4482.366,0.1701915,
4480.437,0.1663769,
4478.508,0.1624326,
4476.580,0.1584184,
4474.651,0.154372,
4472.722,0.1502951,
4470.794,0.1461741,
4468.865,0.1420289,
4466.936,0.1378822,
4465.007,0.1337221,
4463.079,0.1295984,
4461.150,0.1255974,
4459.221,0.1217163,
4457.292,0.1179112,
4455.364,0.1141802,
4453.435,0.1105216,
4451.506,0.1069087,
4449.578,0.1033626,
4447.649,0.09996713,
4445.720,0.09674022,
4443.791,0.09360214,
4441.863,0.09051878,
4439.934,0.08754192,
4438.005,0.08471601,
4436.076,0.08202042,
4434.148,0.07938717,
4432.219,0.07680807,
4430.290,0.07436033,
4428.362,0.07205863,
4426.433,0.06984016,
4424.504,0.06770444,
4422.575,0.06567801,
4420.647,0.06373055,
4418.718,0.06184425,
4416.789,0.06002945,
4414.860,0.05828912,
4412.932,0.05663078,
4411.003,0.05504286,
4409.074,0.05351092,
4407.145,0.05205134,
4405.217,0.05066923,
4403.288,0.04935624,
4401.359,0.04810453,
4399.431,0.04690317,
4397.502,0.04576629,
4395.573,0.04469511,
4393.644,0.04364727,
4391.716,0.04261248,
4389.787,0.04162529,
4387.858,0.04069441,
4385.929,0.0398143,
4384.001,0.03898972,
4382.072,0.03818455,
4380.143,0.03737909,
4378.215,0.03662836,
4376.286,0.03595609,
4374.357,0.03532367,
4372.428,0.03470739,
4370.500,0.03412906,
4368.571,0.03357812,
4366.642,0.03299399,
4364.713,0.03240454,
4362.785,0.03188025,
4360.856,0.03140625,
4358.927,0.03094515,
4356.999,0.03050224,
4355.070,0.03009571,
4353.141,0.02969913,
4351.212,0.02927304,
4349.284,0.02882721,
4347.355,0.02839501,
4345.426,0.02802338,
4343.497,0.02773041,
4341.569,0.02744536,
4339.640,0.02710705,
4337.711,0.02676368,
4335.783,0.02648406,
4333.854,0.02624311,
4331.925,0.02597073,
4329.996,0.02567677,
4328.068,0.02541693,
4326.139,0.0251773,
4324.210,0.02493084,
4322.281,0.02470224,
4320.353,0.02449854,
4318.424,0.02431581,
4316.495,0.02417773,
4314.567,0.02405322,
4312.638,0.02387801,
4310.709,0.02368229,
4308.780,0.02352193,
4306.852,0.02338856,
4304.923,0.02325981,
4302.994,0.02311205,
4301.065,0.02295087,
4299.137,0.02282277,
4297.208,0.02272955,
4295.279,0.02264135,
4293.350,0.02255966,
4291.422,0.02248998,
4289.493,0.02243407,
4287.564,0.0223977,
4285.636,0.02235742,
4283.707,0.02228894,
4281.778,0.02221642,
4279.849,0.02218274,
4277.921,0.02218676,
4275.992,0.02218312,
4274.063,0.02216144,
4272.134,0.02214308,
4270.206,0.02212693,
4268.277,0.02212685,
4266.348,0.02214659,
4264.420,0.02214071,
4262.491,0.02210892,
4260.562,0.02210868,
4258.633,0.02215988,
4256.705,0.02223953,
4254.776,0.02233933,
4252.847,0.02245763,
4250.918,0.02256203,
4248.990,0.02263833,
4247.061,0.02273139,
4245.132,0.02286812,
4243.204,0.02301884,
4241.275,0.02315936,
4239.346,0.02328983,
4237.417,0.02341353,
4235.489,0.02353692,
4233.560,0.02366787,
4231.631,0.02382201,
4229.702,0.02400563,
4227.774,0.0241974,
4225.845,0.02438705,
4223.916,0.02458174,
4221.988,0.0247866,
4220.059,0.02501817,
4218.130,0.02528239,
4216.201,0.0255368,
4214.273,0.02576666,
4212.344,0.0260424,
4210.415,0.02638751,
4208.486,0.02673597,
4206.558,0.02705838,
4204.629,0.02737794,
4202.700,0.02771462,
4200.772,0.0280699,
4198.843,0.02844631,
4196.914,0.0288815,
4194.985,0.02938302,
4193.057,0.02986002,
4191.128,0.03026182,
4189.199,0.03068079,
4187.270,0.03118564,
4185.342,0.03173165,
4183.413,0.03229355,
4181.484,0.03289007,
4179.555,0.03350467,
4177.627,0.03411904,
4175.698,0.03474767,
4173.769,0.03541895,
4171.841,0.03616247,
4169.912,0.03695788,
4167.983,0.03776852,
4166.054,0.03861348,
4164.126,0.0395013,
4162.197,0.04040514,
4160.268,0.04132431,
4158.339,0.04228855,
4156.411,0.04332708,
4154.482,0.04445601,
4152.553,0.04566333,
4150.625,0.04689746,
4148.696,0.04814524,
4146.767,0.04946521,
4144.838,0.05088562,
4142.910,0.05237871,
4140.981,0.05392049,
4139.052,0.05551927,
4137.123,0.05721407,
4135.195,0.05903514,
4133.266,0.0609692,
4131.337,0.06299007,
4129.409,0.06509285,
4127.480,0.0672878,
4125.551,0.06959303,
4123.622,0.07201672,
4121.694,0.07456872,
4119.765,0.0772618,
4117.836,0.08006646,
4115.907,0.08296596,
4113.979,0.08600178,
4112.050,0.0891925,
4110.121,0.09251156,
4108.193,0.09594765,
4106.264,0.09952085,
4104.335,0.1032419,
4102.406,0.1071042,
4100.478,0.1110971,
4098.549,0.1151893,
4096.620,0.1193365,
4094.691,0.1235094,
4092.763,0.1277049,
4090.834,0.131935,
4088.905,0.136192,
4086.977,0.140426,
4085.048,0.144583,
4083.119,0.1486656,
4081.190,0.1526931,
4079.262,0.1566302,
4077.333,0.1604293,
4075.404,0.164076,
4073.475,0.167532,
4071.547,0.1707216,
4069.618,0.173598,
4067.689,0.1761471,
4065.760,0.1783486,
4063.832,0.1801563,
4061.903,0.1815132,
4059.974,0.1823931,
4058.046,0.1827966,
4056.117,0.1827144,
4054.188,0.18215,
4052.259,0.1811447,
4050.331,0.1797244,
4048.402,0.17789,
4046.473,0.1756733,
4044.544,0.1731397,
4042.616,0.1703338,
4040.687,0.167237,
4038.758,0.163844,
4036.830,0.1602286,
4034.901,0.1564466,
4032.972,0.1524844,
4031.043,0.1483208,
4029.115,0.1439786,
4027.186,0.1395304,
4025.257,0.1350413,
4023.328,0.1305351,
4021.400,0.1260427,
4019.471,0.1216322,
4017.542,0.117336,
4015.614,0.1131062,
4013.685,0.1089427,
4011.756,0.1049183,
4009.827,0.1010452,
4007.899,0.09727715,
4005.970,0.09359255,
4004.041,0.0900149,
4002.112,0.0865743,
4000.184,0.0832766,
3998.255,0.08011089,
3996.326,0.07704037,
3994.398,0.07405525,
3992.469,0.07119986,
3990.540,0.06850024,
3988.611,0.06592918,
3986.683,0.06344412,
3984.754,0.06107241,
3982.825,0.05885921,
3980.896,0.05676301,
3978.968,0.05474993,
3977.039,0.05282998,
3975.110,0.0509891,
3973.181,0.04921981,
3971.253,0.04753886,
3969.324,0.04596849,
3967.395,0.0445152,
3965.467,0.04311997,
3963.538,0.04172669,
3961.609,0.04040048,
3959.680,0.03921861,
3957.752,0.03812299,
3955.823,0.03703908,
3953.894,0.03599586,
3951.965,0.03501786,
3950.037,0.03406422,
3948.108,0.03311267,
3946.179,0.03220457,
3944.251,0.03140836,
3942.322,0.03070384,
3940.393,0.02997471,
3938.464,0.02922074,
3936.536,0.02855861,
3934.607,0.02796601,
3932.678,0.02733238,
3930.749,0.02668622,
3928.821,0.02610615,
3926.892,0.02557295,
3924.963,0.02505315,
3923.035,0.02457153,
3921.106,0.02413677,
3919.177,0.02370607,
3917.248,0.02324918,
3915.320,0.02279297,
3913.391,0.02238994,
3911.462,0.02202165,
3909.533,0.02161345,
3907.605,0.02118687,
3905.676,0.02083212,
3903.747,0.02057162,
3901.819,0.0203528,
3899.890,0.02009212,
3897.961,0.01977395,
3896.032,0.01946911,
3894.104,0.01919985,
3892.175,0.01894867,
3890.246,0.01871855,
3888.317,0.01848229,
3886.389,0.01823601,
3884.460,0.01802631,
3882.531,0.01783021,
3880.603,0.01762294,
3878.674,0.01745882,
3876.745,0.01730506,
3874.816,0.01710069,
3872.888,0.01690947,
3870.959,0.01677,
3869.030,0.01664994,
3867.101,0.0165321,
3865.173,0.01640691,
3863.244,0.01625678,
3861.315,0.01609205,
3859.386,0.01598331,
3857.458,0.01593173,
3855.529,0.01584017,
3853.600,0.01572882,
3851.672,0.01569672,
3849.743,0.01569314,
3847.814,0.01561227,
3845.885,0.01548743,
3843.957,0.01536765,
3842.028,0.01525213,
3840.099,0.01520027,
3838.170,0.0152197,
3836.242,0.01523908,
3834.313,0.01522947,
3832.384,0.01517024,
3830.456,0.01507665,
3828.527,0.01501051,
3826.598,0.01497232,
3824.669,0.01496203,
3822.741,0.01500436,
3820.812,0.01503796,
3818.883,0.01498417,
3816.954,0.01490729,
3815.026,0.01491774,
3813.097,0.0149793,
3811.168,0.01502185,
3809.240,0.01506385,
3807.311,0.01511809,
3805.382,0.01519314,
3803.453,0.01528685,
3801.525,0.01535434,
3799.596,0.01539713,
3797.667,0.01545329,
3795.738,0.0155061,
3793.810,0.01553029,
3791.881,0.01556774,
3789.952,0.01566702,
3788.024,0.01581798,
3786.095,0.01598029,
3784.166,0.01611426,
3782.237,0.01621271,
3780.309,0.01630221,
3778.380,0.0164151,
3776.451,0.01658192,
3774.522,0.01679332,
3772.594,0.01698934,
3770.665,0.01713699,
3768.736,0.01726414,
3766.808,0.01740712,
3764.879,0.01759081,
3762.950,0.01783426,
3761.021,0.01811047,
3759.093,0.01835773,
3757.164,0.01857634,
3755.235,0.01881553,
3753.306,0.01907323,
3751.378,0.01932337,
3749.449,0.01958163,
3747.520,0.01986214,
3745.591,0.02017101,
3743.663,0.02054438,
3741.734,0.02096366,
3739.805,0.02134808,
3737.877,0.02170616,
3735.948,0.02211289,
3734.019,0.02257753,
3732.090,0.02306362,
3730.162,0.02355774,
3728.233,0.02406385,
3726.304,0.02459703,
3724.375,0.02517788,
3722.447,0.02580143,
3720.518,0.02645105,
3718.589,0.02710932,
3716.661,0.02777367,
3714.732,0.02846854,
3712.803,0.0292045,
3710.874,0.02999724,
3708.946,0.03086964,
3707.017,0.03181151,
3705.088,0.0327999,
3703.159,0.03383232,
3701.231,0.03491881,
3699.302,0.03604207,
3697.373,0.0371909,
3695.445,0.03838322,
3693.516,0.03960445,
3691.587,0.04085587,
3689.658,0.04221477,
3687.730,0.04372836,
3685.801,0.0453568,
3683.872,0.04705194,
3681.943,0.04879444,
3680.015,0.05058393,
3678.086,0.05244097,
3676.157,0.05442791,
3674.229,0.05657211,
3672.300,0.05880462,
3670.371,0.06114218,
3668.442,0.06366087,
3666.514,0.06629149,
3664.585,0.06894565,
3662.656,0.0716519,
3660.727,0.07446536,
3658.799,0.07736878,
3656.870,0.08034302,
3654.941,0.08341255,
3653.013,0.08649767,
3651.084,0.08952976,
3649.155,0.09264878,
3647.226,0.09593915,
3645.298,0.0992636,
3643.369,0.1025109,
3641.440,0.1056699,
3639.511,0.1087306,
3637.583,0.11167,
3635.654,0.1144554,
3633.725,0.1170577,
3631.796,0.1194124,
3629.868,0.1215617,
3627.939,0.1237019,
3626.010,0.1257773,
3624.082,0.127524,
3622.153,0.128865,
3620.224,0.1298815,
3618.295,0.1306791,
3616.367,0.1312627,
3614.438,0.1315392,
3612.509,0.1314783,
3610.580,0.131101,
3608.652,0.1304615,
3606.723,0.1295977,
3604.794,0.1284223,
3602.866,0.1268382,
3600.937,0.1248772,
3599.008,0.1226403,
3597.079,0.1201898,
3595.151,0.1175261,
3593.222,0.1146479,
3591.293,0.1115678,
3589.364,0.1083168,
3587.436,0.1049752,
3585.507,0.1015996,
3583.578,0.09817483,
3581.650,0.09470814,
3579.721,0.09125022,
3577.792,0.08782331,
3575.863,0.08442876,
3573.935,0.08108186,
3572.006,0.0777818,
3570.077,0.07451918,
3568.148,0.07134255,
3566.220,0.06832647,
3564.291,0.06545431,
3562.362,0.06266371,
3560.434,0.05996637,
3558.505,0.05739022,
3556.576,0.05491915,
3554.647,0.05253683,
3552.719,0.05027375,
3550.790,0.04817068,
3548.861,0.04618412,
3546.932,0.04425836,
3545.004,0.04241785,
3543.075,0.04069201,
3541.146,0.03907805,
3539.217,0.0375656,
3537.289,0.03613322,
3535.360,0.03475542,
3533.431,0.0334393,
3531.503,0.03220659,
3529.574,0.03104151,
3527.645,0.02992787,
3525.716,0.02887555,
3523.788,0.02788334,
3521.859,0.02694989,
3519.930,0.02608505,
3518.001,0.02527654,
3516.073,0.02450656,
3514.144,0.02377704,
3512.215,0.02307945,
3510.287,0.02240483,
3508.358,0.0217619,
3506.429,0.02115608,
3504.500,0.02058733,
3502.572,0.02004364,
3500.643,0.01951522,
3498.714,0.01901767,
3496.785,0.01856015,
3494.857,0.0181249,
3492.928,0.0176887,
3490.999,0.01725342,
3489.071,0.0168365,
3487.142,0.01643163,
3485.213,0.01604219,
3483.284,0.01570183,
3481.356,0.01539958,
3479.427,0.01508634,
3477.498,0.01476643,
3475.569,0.01447465,
3473.641,0.01420674,
3471.712,0.01395236,
3469.783,0.01370915,
3467.855,0.01345881,
3465.926,0.01320332,
3463.997,0.01297008,
3462.068,0.01276428,
3460.140,0.01256824,
3458.211,0.01237392,
3456.282,0.01217307,
3454.353,0.01195815,
3452.425,0.01174939,
3450.496,0.01156563,
3448.567,0.01140479,
3446.639,0.01125369,
3444.710,0.01110382,
3442.781,0.01097351,
3440.852,0.01086531,
3438.924,0.01074775,
3436.995,0.01060214,
3435.066,0.01044277,
3433.137,0.01030944,
3431.209,0.01022122,
3429.280,0.01014965,
3427.351,0.01006709,
3425.422,0.009972824,
3423.494,0.009868894,
3421.565,0.00976677,
3419.636,0.009680416,
3417.708,0.009597205,
3415.779,0.009516031,
3413.850,0.009451496,
3411.921,0.009396152,
3409.993,0.00933587,
3408.064,0.009265408,
3406.135,0.009209115,
3404.206,0.009189437,
3402.278,0.009169127,
3400.349,0.0091228,
3398.420,0.009076464,
3396.492,0.009051445,
3394.563,0.009061866,
3392.634,0.009095253,
3390.705,0.009100053,
3388.777,0.009067564,
3386.848,0.009044324,
3384.919,0.009049169,
3382.990,0.009065923,
3381.062,0.009084585,
3379.133,0.009100546,
3377.204,0.009121115,
3375.276,0.009162211,
3373.347,0.009213887,
3371.418,0.009245117,
3369.489,0.009250436,
3367.561,0.009254749,
3365.632,0.009252461,
3363.703,0.00921752,
3361.774,0.009185152,
3359.846,0.009207034,
3357.917,0.009260594,
3355.988,0.009296726,
3354.060,0.009319208,
3352.131,0.009350805,
3350.202,0.009385244,
3348.273,0.00942573,
3346.345,0.009484589,
3344.416,0.009548166,
3342.487,0.009602431,
3340.558,0.009645582,
3338.630,0.009689602,
3336.701,0.009764568,
3334.772,0.009872168,
3332.844,0.009974429,
3330.915,0.01005493,
3328.986,0.01012139,
3327.057,0.01017406,
3325.129,0.01023765,
3323.200,0.01034269,
3321.271,0.0104711,
3319.342,0.01060326,
3317.414,0.01073665,
3315.485,0.01085402,
3313.556,0.0109601,
3311.627,0.01108715,
3309.699,0.01124155,
3307.770,0.01140411,
3305.841,0.01156629,
3303.913,0.01173276,
3301.984,0.01190653,
3300.055,0.01208379,
3298.126,0.01226265,
3296.198,0.01245268,
3294.269,0.01266005,
3292.340,0.0128905,
3290.411,0.01315467,
3288.483,0.01343354,
3286.554,0.01369363,
3284.625,0.01394608,
3282.697,0.01422666,
3280.768,0.01453815,
3278.839,0.01487461,
3276.910,0.01523333,
3274.982,0.01558646,
3273.053,0.01593889,
3271.124,0.01632465,
3269.195,0.01673077,
3267.267,0.01714059,
3265.338,0.01757797,
3263.409,0.01807027,
3261.481,0.01861537,
3259.552,0.01918678,
3257.623,0.01977092,
3255.694,0.02037909,
3253.766,0.02102395,
3251.837,0.02170722,
3249.908,0.02242948,
3247.979,0.023193,
3246.051,0.02400081,
3244.122,0.02485837,
3242.193,0.02577255,
3240.265,0.02675521,
3238.336,0.0278056,
3236.407,0.02890933,
3234.478,0.03007281,
3232.550,0.03133168,
3230.621,0.03271547,
3228.692,0.03420586,
3226.763,0.03576963,
3224.835,0.03741953,
3222.906,0.03920319,
3220.977,0.04114727,
3219.049,0.04322497,
3217.120,0.0454065,
3215.191,0.04771305,
3213.262,0.0501814,
3211.334,0.05283275,
3209.405,0.0556925,
3207.476,0.05876742,
3205.547,0.06200932,
3203.619,0.06537713,
3201.690,0.06887978,
3199.761,0.07253572,
3197.832,0.07635999,
3195.904,0.08032519,
3193.975,0.0843437,
3192.046,0.08836217,
3190.118,0.09238357,
3188.189,0.09638691,
3186.260,0.1002976,
3184.331,0.1040207,
3182.403,0.1074825,
3180.474,0.1106334,
3178.545,0.1134336,
3176.616,0.1158437,
3174.688,0.1178034,
3172.759,0.1192514,
3170.830,0.120156,
3168.902,0.1204949,
3166.973,0.120238,
3165.044,0.1193729,
3163.115,0.1179293,
3161.187,0.1159552,
3159.258,0.1134857,
3157.329,0.1105523,
3155.400,0.1072063,
3153.472,0.1035244,
3151.543,0.09959736,
3149.614,0.09551512,
3147.686,0.0913381,
3145.757,0.08710494,
3143.828,0.08287199,
3141.899,0.07869486,
3139.971,0.07461364,
3138.042,0.07066042,
3136.113,0.06684685,
3134.184,0.0631785,
3132.256,0.05966558,
3130.327,0.05631388,
3128.398,0.05313735,
3126.470,0.05014481,
3124.541,0.04731434,
3122.612,0.0446303,
3120.683,0.04211492,
3118.755,0.03978005,
3116.826,0.03759408,
3114.897,0.03553706,
3112.968,0.03361963,
3111.040,0.03183879,
3109.111,0.03018541,
3107.182,0.02864777,
3105.253,0.02720485,
3103.325,0.02585262,
3101.396,0.02459244,
3099.467,0.02341343,
3097.539,0.02231187,
3095.610,0.0213057,
3093.681,0.02039048,
3091.752,0.01952324,
3089.824,0.01870034,
3087.895,0.01793487,
3085.966,0.01719543,
3084.037,0.01648417,
3082.109,0.0158404,
3080.180,0.01524173,
3078.251,0.0146543,
3076.323,0.01410903,
3074.394,0.01362024,
3072.465,0.01315715,
3070.536,0.01270831,
3068.608,0.01228567,
3066.679,0.01190423,
3064.750,0.01155286,
3062.821,0.01119452,
3060.893,0.01082727,
3058.964,0.0104924,
3057.035,0.0101974,
3055.107,0.009911434,
3053.178,0.009645268,
3051.249,0.009416337,
3049.320,0.009196144,
3047.392,0.00897227,
3045.463,0.00876378,
3043.534,0.008577188,
3041.605,0.008388681,
3039.677,0.008175542,
3037.748,0.007965088,
3035.819,0.007791219,
3033.891,0.007630791,
3031.962,0.007462594,
3030.033,0.007317438,
3028.104,0.007199073,
3026.176,0.00706597,
3024.247,0.006914288,
3022.318,0.006772904,
3020.389,0.006662954,
3018.461,0.006591176,
3016.532,0.006517084,
3014.603,0.006391202,
3012.675,0.006246126,
3010.746,0.006146982,
3008.817,0.006093131,
3006.888,0.006042966,
3004.960,0.005979132,
3003.031,0.005915576,
3001.102,0.005858507,
2999.173,0.005793886,
2997.245,0.005722011,
2995.316,0.005661861,
2993.387,0.005619549,
2991.458,0.005583279,
2989.530,0.005556402,
2987.601,0.005555355,
2985.672,0.005561427,
2983.744,0.005542654,
2981.815,0.005513312,
2979.886,0.005501724,
2977.957,0.005488529,
2976.029,0.005436598,
2974.100,0.005333504,
2972.171,0.00516595,
2970.242,0.00492488,
2968.314,0.004631827,
2966.385,0.004294136,
2964.456,0.003894907,
2962.528,0.003469941,
2960.599,0.003090113,
2958.670,0.002772442,
2956.741,0.002511873,
2954.813,0.002309139,
2952.884,0.002134562,
2950.955,0.001954154,
2949.026,0.001770863,
2947.098,0.001613525,
2945.169,0.00148851,
2943.240,0.001382183,
2941.312,0.001291613,
2939.383,0.001217358,
2937.454,0.00118375,
2935.525,0.001216884,
2933.597,0.001315406,
2931.668,0.001473182,
2929.739,0.001671524,
2927.810,0.001892919,
2925.882,0.002146034,
2923.953,0.002440232,
2922.024,0.002752114,
2920.096,0.003043806,
2918.167,0.003303089,
2916.238,0.003537828,
2914.309,0.003745553,
2912.381,0.003895007,
2910.452,0.003955008,
2908.523,0.003952885,
2906.594,0.003953005,
2904.666,0.003970035,
2902.737,0.003978779,
2900.808,0.003993631,
2898.880,0.004041641,
2896.951,0.004095268,
2895.022,0.004113783,
2893.093,0.004114539,
2891.165,0.004130697,
2889.236,0.004148264,
2887.307,0.004160564,
2885.378,0.004171718,
2883.450,0.004151892,
2881.521,0.004106216,
2879.592,0.00407403,
2877.663,0.004031861,
2875.735,0.003931719,
2873.806,0.003776337,
2871.877,0.003574686,
2869.949,0.003328038,
2868.020,0.00306225,
2866.091,0.002818045,
2864.162,0.002649744,
2862.234,0.00260429,
2860.305,0.002694855,
2858.376,0.00289623,
2856.447,0.003150852,
2854.519,0.003407758,
2852.590,0.003637207,
2850.661,0.003836471,
2848.733,0.004020099,
2846.804,0.004188995,
2844.875,0.004346078,
2842.946,0.004479381,
2841.018,0.004563665,
2839.089,0.004623699,
2837.160,0.004691073,
2835.231,0.00474919,
2833.303,0.004789269,
2831.374,0.004833759,
2829.445,0.004896051,
2827.517,0.004970244,
2825.588,0.005041477,
2823.659,0.005110737,
2821.730,0.005204714,
2819.802,0.005315845,
2817.873,0.005409256,
2815.944,0.005501651,
2814.015,0.005622355,
2812.087,0.005753065,
2810.158,0.005875204,
2808.229,0.005996863,
2806.301,0.006129261,
2804.372,0.006279946,
2802.443,0.006450595,
2800.514,0.006629475,
2798.586,0.006791574,
2796.657,0.006926901,
2794.728,0.007061805,
2792.799,0.007225226,
2790.871,0.007408591,
2788.942,0.007603341,
2787.013,0.007849063,
2785.085,0.008154,
2783.156,0.008451686,
2781.227,0.008720439,
2779.298,0.009003248,
2777.370,0.009309509,
2775.441,0.009634035,
2773.512,0.009991623,
2771.583,0.01036953,
2769.655,0.01074838,
2767.726,0.01114724,
2765.797,0.0115849,
2763.868,0.01205545,
2761.940,0.01255587,
2760.011,0.0130999,
2758.082,0.01370061,
2756.154,0.01436188,
2754.225,0.01508635,
2752.296,0.01587174,
2750.367,0.01672375,
2748.439,0.01764933,
2746.510,0.01863974,
2744.581,0.0197105,
2742.652,0.02089415,
2740.724,0.02219558,
2738.795,0.02359843,
2736.866,0.02509341,
2734.938,0.0267079,
2733.009,0.02848442,
2731.080,0.03044958,
2729.151,0.03261644,
2727.223,0.03499926,
2725.294,0.03764435,
2723.365,0.04057213,
2721.436,0.04372359,
2719.508,0.04704719,
2717.579,0.05056458,
2715.650,0.05432046,
2713.722,0.05830152,
2711.793,0.06245997,
2709.864,0.06675857,
2707.935,0.0711051,
2706.007,0.07537132,
2704.078,0.07948392,
2702.149,0.08336064,
2700.220,0.08684403,
2698.292,0.08978941,
2696.363,0.09211893,
2694.434,0.09376482,
2692.506,0.09462669,
2690.577,0.09457488,
2688.648,0.09348324,
2686.719,0.09127562,
2684.791,0.08798813,
2682.862,0.08384143,
2680.933,0.07924444,
2679.004,0.07470751,
2677.076,0.0706716,
2675.147,0.06728568,
2673.218,0.06438603,
2671.290,0.06179498,
2669.361,0.05953158,
2667.432,0.0576224,
2665.503,0.05585369,
2663.575,0.05386211,
2661.646,0.05141791,
2659.717,0.04856869,
2657.788,0.04554426,
2655.860,0.04255038,
2653.931,0.03969566,
2652.002,0.03705264,
2650.073,0.03465486,
2648.145,0.03248283,
2646.216,0.03051105,
2644.287,0.02870746,
2642.359,0.02700722,
2640.430,0.02535525,
2638.501,0.02376025,
2636.572,0.02227153,
2634.644,0.02091104,
2632.715,0.01965846,
2630.786,0.01848622,
2628.857,0.017378,
2626.929,0.0163461,
2625.000,0.01541868,
2623.071,0.01458615,
2621.143,0.01381327,
2619.214,0.0131017,
2617.285,0.01248565,
2615.356,0.01195914,
2613.428,0.01146722,
2611.499,0.01098471,
2609.570,0.01052109,
2607.641,0.01007234,
2605.713,0.009664849,
2603.784,0.009346847,
2601.855,0.009066562,
2599.927,0.008726268,
2597.998,0.00834874,
2596.069,0.008018968,
2594.140,0.007742519,
2592.212,0.007464157,
2590.283,0.007170896,
2588.354,0.006911374,
2586.425,0.0067058,
2584.497,0.006515851,
2582.568,0.006325699,
2580.639,0.006158823,
2578.711,0.006017489,
2576.782,0.005877775,
2574.853,0.005718596,
2572.924,0.005547728,
2570.996,0.005391869,
2569.067,0.005249335,
2567.138,0.00511287,
2565.209,0.00499028,
2563.281,0.004867475,
2561.352,0.004734685,
2559.423,0.004607632,
2557.494,0.004487416,
2555.566,0.004382867,
2553.637,0.00432379,
2551.708,0.004286823,
2549.780,0.004208886,
2547.851,0.004085678,
2545.922,0.003974998,
2543.993,0.003912617,
2542.065,0.003866864,
2540.136,0.003802696,
2538.207,0.003735331,
2536.278,0.003677088,
2534.350,0.003611343,
2532.421,0.003541437,
2530.492,0.003488394,
2528.564,0.003450381,
2526.635,0.003414871,
2524.706,0.003376969,
2522.777,0.003338912,
2520.849,0.003306393,
2518.920,0.003277836,
2516.991,0.003246896,
2515.062,0.003214689,
2513.134,0.00318547,
2511.205,0.003149335,
2509.276,0.003108672,
2507.348,0.003092689,
2505.419,0.003097655,
2503.490,0.003080884,
2501.561,0.003020823,
2499.633,0.002948383,
2497.704,0.002913086,
2495.775,0.002914991,
2493.846,0.002922077,
2491.918,0.00292762,
2489.989,0.00292699,
2488.060,0.002909722,
2486.132,0.00287654,
2484.203,0.002832292,
2482.274,0.002792113,
2480.345,0.002763984,
2478.417,0.002740167,
2476.488,0.002733016,
2474.559,0.0027476,
2472.630,0.002755771,
2470.702,0.002746481,
2468.773,0.002732466,
2466.844,0.002729206,
2464.916,0.002739857,
2462.987,0.002746061,
2461.058,0.002748647,
2459.129,0.002756034,
2457.201,0.002747742,
2455.272,0.002722444,
2453.343,0.002711833,
2451.414,0.002729257,
2449.486,0.002755686,
2447.557,0.00277062,
2445.628,0.002777236,
2443.699,0.002783519,
2441.771,0.002784714,
2439.842,0.00278984,
2437.913,0.002807804,
2435.985,0.002818219,
2434.056,0.002813803,
2432.127,0.002813201,
2430.198,0.002833694,
2428.270,0.002877932,
2426.341,0.002917961,
2424.412,0.00293311,
2422.483,0.002936849,
2420.555,0.002941316,
2418.626,0.002957032,
2416.697,0.002987027,
2414.769,0.003020308,
2412.840,0.003051667,
2410.911,0.003068531,
2408.982,0.003071344,
2407.054,0.003093427,
2405.125,0.003136653,
2403.196,0.003171069,
2401.267,0.003198968,
2399.339,0.003245143,
2397.410,0.003316126,
2395.481,0.003385029,
2393.553,0.003429645,
2391.624,0.003471216,
2389.695,0.003529026,
2387.766,0.003585484,
2385.838,0.003629872,
2383.909,0.003688761,
2381.980,0.003768954,
2380.051,0.003844374,
2378.123,0.003921193,
2376.194,0.004012012,
2374.265,0.004101151,
2372.337,0.004186395,
2370.408,0.004264886,
2368.479,0.004331838,
2366.550,0.004414591,
2364.622,0.004513907,
2362.693,0.004598929,
2360.764,0.004691133,
2358.835,0.004820667,
2356.907,0.004961887,
2354.978,0.00509746,
2353.049,0.005248359,
2351.121,0.005421721,
2349.192,0.005603722,
2347.263,0.005787133,
2345.334,0.005975415,
2343.406,0.006176926,
2341.477,0.006386785,
2339.548,0.006587546,
2337.619,0.006787471,
2335.691,0.007016259,
2333.762,0.007281952,
2331.833,0.007559402,
2329.904,0.007835083,
2327.976,0.008137111,
2326.047,0.008489328,
2324.118,0.00889005,
2322.190,0.009339569,
2320.261,0.009830296,
2318.332,0.01034345,
2316.403,0.01088263,
2314.475,0.01146984,
2312.546,0.01211291,
2310.617,0.01280662,
2308.688,0.01355649,
2306.760,0.0143847,
2304.831,0.01530762,
2302.902,0.01631869,
2300.974,0.01741709,
2299.045,0.01862933,
2297.116,0.01997647,
2295.187,0.0214519,
2293.259,0.023043,
2291.330,0.02477236,
2289.401,0.02669542,
2287.472,0.02884739,
2285.544,0.03124465,
2283.615,0.03389725,
2281.686,0.03678521,
2279.758,0.03985928,
2277.829,0.04305248,
2275.900,0.04631598,
2273.971,0.04963063,
2272.043,0.05297489,
2270.114,0.05631243,
2268.185,0.05957015,
2266.256,0.0626412,
2264.328,0.06539678,
2262.399,0.06766933,
2260.470,0.06929535,
2258.542,0.07019497,
2256.613,0.07037721,
2254.684,0.06988182,
2252.755,0.06876933,
2250.827,0.06710473,
2248.898,0.0649014,
2246.969,0.06219057,
2245.040,0.0591035,
2243.112,0.05578808,
2241.183,0.05233538,
2239.254,0.04882163,
2237.326,0.04533966,
2235.397,0.04197049,
2233.468,0.03876457,
2231.539,0.03575347,
2229.611,0.03295262,
2227.682,0.03035879,
2225.753,0.02796033,
2223.824,0.02574766,
2221.896,0.02371284,
2219.967,0.02184612,
2218.038,0.02014604,
2216.109,0.01860569,
2214.181,0.01720169,
2212.252,0.01593407,
2210.323,0.01480977,
2208.395,0.01380319,
2206.466,0.01288864,
2204.537,0.01205481,
2202.608,0.01128724,
2200.680,0.01056915,
2198.751,0.009905747,
2196.822,0.009318835,
2194.893,0.008798893,
2192.965,0.008313356,
2191.036,0.007849205,
2189.107,0.0074141,
2187.179,0.007014195,
2185.250,0.006646556,
2183.321,0.006312246,
2181.392,0.006020026,
2179.464,0.005769625,
2177.535,0.005538318,
2175.606,0.005309452,
2173.677,0.005097551,
2171.749,0.004911789,
2169.820,0.004735507,
2167.891,0.004560861,
2165.963,0.004401896,
2164.034,0.004257797,
2162.105,0.004106525,
2160.176,0.003950921,
2158.248,0.003812778,
2156.319,0.00368386,
2154.390,0.003543788,
2152.461,0.003405084,
2150.533,0.003287721,
2148.604,0.003184997,
2146.675,0.003093408,
2144.747,0.003019932,
2142.818,0.002949407,
2140.889,0.0028613,
2138.960,0.00275925,
2137.032,0.002663783,
2135.103,0.002601327,
2133.174,0.002570304,
2131.245,0.002528493,
2129.317,0.002459124,
2127.388,0.002396627,
2125.459,0.002357305,
2123.530,0.002310924,
2121.602,0.002244979,
2119.673,0.00218869,
2117.744,0.002145119,
2115.816,0.002087331,
2113.887,0.002017404,
2111.958,0.001961054,
2110.029,0.001926025,
2108.101,0.001895828,
2106.172,0.001865803,
2104.243,0.001841139,
2102.314,0.001816404,
2100.386,0.001794126,
2098.457,0.001766091,
2096.528,0.001720479,
2094.600,0.001681234,
2092.671,0.001668622,
2090.742,0.001665945,
2088.813,0.001648736,
2086.885,0.001617205,
2084.956,0.00159135,
2083.027,0.001576409,
2081.098,0.001567183,
2079.170,0.001573708,
2077.241,0.001590066,
2075.312,0.001578824,
2073.384,0.001540364,
2071.455,0.001513716,
2069.526,0.001504393,
2067.597,0.001501075,
2065.669,0.001495911,
2063.740,0.00147725,
2061.811,0.001456076,
2059.882,0.001441745,
2057.954,0.001418778,
2056.025,0.001384474,
2054.096,0.001359598,
2052.168,0.001360984,
2050.239,0.001378298,
2048.310,0.001386223,
2046.381,0.001381775,
2044.453,0.001377608,
2042.524,0.001367138,
2040.595,0.001340226,
2038.666,0.001318999,
2036.738,0.001318309,
2034.809,0.001313109,
2032.880,0.001299091,
2030.952,0.001302304,
2029.023,0.001318073,
2027.094,0.001321061,
2025.165,0.001313784,
2023.237,0.001316072,
2021.308,0.001330051,
2019.379,0.001333077,
2017.450,0.001315172,
2015.522,0.001304089,
2013.593,0.001318697,
2011.664,0.001343353,
2009.735,0.001359306,
2007.807,0.001364045,
2005.878,0.001365136,
2003.949,0.001363389,
2002.021,0.001362024,
2000.092,0.001374101,
1998.163,0.001386119,
1996.234,0.001379036,
1994.306,0.001375158,
1992.377,0.001381794,
1990.448,0.00138373,
1988.519,0.001396619,
1986.591,0.001424138,
1984.662,0.001441734,
1982.733,0.001449743,
1980.805,0.001456275,
1978.876,0.001455031,
1976.947,0.001445206,
1975.018,0.001443415,
1973.090,0.001466498,
1971.161,0.001504932,
1969.232,0.001538641,
1967.303,0.001561003,
1965.375,0.001578444,
1963.446,0.001595168,
1961.517,0.001599482,
1959.589,0.001602069,
1957.660,0.001632238,
1955.731,0.001674302,
1953.802,0.001700102,
1951.874,0.001719943,
1949.945,0.001752517,
1948.016,0.001798351,
1946.087,0.001841682,
1944.159,0.001870164,
1942.230,0.001895601,
1940.301,0.001937415,
1938.373,0.001987776,
1936.444,0.002033425,
1934.515,0.002086715,
1932.586,0.002145428,
1930.658,0.002191117,
1928.729,0.002234875,
1926.800,0.002293375,
1924.871,0.002365373,
1922.943,0.002443866,
1921.014,0.002521189,
1919.085,0.002598097,
1917.157,0.002679979,
1915.228,0.002769666,
1913.299,0.00286606,
1911.370,0.002966616,
1909.442,0.003075959,
1907.513,0.003196647,
1905.584,0.003324713,
1903.655,0.003460301,
1901.727,0.003610383,
1899.798,0.003785853,
1897.869,0.00397842,
1895.940,0.004170502,
1894.012,0.004377916,
1892.083,0.004613264,
1890.154,0.004861241,
1888.226,0.005127332,
1886.297,0.005440824,
1884.368,0.005811353,
1882.439,0.006210939,
1880.511,0.006621465,
1878.582,0.007061454,
1876.653,0.007541982,
1874.724,0.008070538,
1872.796,0.008662863,
1870.867,0.00931786,
1868.938,0.01004619,
1867.010,0.0108942,
1865.081,0.011912,
1863.152,0.01313408,
1861.223,0.01458281,
1859.295,0.01627217,
1857.366,0.01820396,
1855.437,0.02037947,
1853.508,0.02280785,
1851.580,0.02545721,
1849.651,0.02823353,
1847.722,0.03100644,
1845.794,0.03361477,
1843.865,0.03588093,
1841.936,0.03762609,
1840.007,0.03869452,
1838.079,0.03897898,
1836.150,0.03843464,
1834.221,0.03710613,
1832.292,0.03513435,
1830.364,0.03273343,
1828.435,0.03009224,
1826.506,0.02730403,
1824.578,0.02444919,
1822.649,0.0216389,
1820.720,0.01898558,
1818.791,0.01657592,
1816.863,0.01443988,
1814.934,0.01259132,
1813.005,0.01104756,
1811.076,0.009799579,
1809.148,0.008831275,
1807.219,0.008113156,
1805.290,0.007576691,
1803.362,0.007127338,
1801.433,0.006676672,
1799.504,0.006185769,
1797.575,0.00566507,
1795.647,0.005144616,
1793.718,0.004660775,
1791.789,0.004223523,
1789.860,0.003823466,
1787.932,0.003465795,
1786.003,0.00314923,
1784.074,0.002865318,
1782.145,0.002611954,
1780.217,0.002384363,
1778.288,0.002185777,
1776.359,0.002014132,
1774.431,0.001850729,
1772.502,0.001701924,
1770.573,0.001586058,
1768.644,0.001493653,
1766.716,0.001420991,
1764.787,0.001361789,
1762.858,0.001291105,
1760.929,0.001213406,
1759.001,0.00114812,
1757.072,0.001088993,
1755.143,0.001021502,
1753.215,0.0009530977,
1751.286,0.0008984657,
1749.357,0.0008536949,
1747.428,0.0008151036,
1745.500,0.0007776562,
1743.571,0.0007285745,
1741.642,0.0006788583,
1739.713,0.000644046,
1737.785,0.0006127753,
1735.856,0.0005825938,
1733.927,0.0005618107,
1731.999,0.0005369163,
1730.070,0.0004917079,
1728.141,0.0004204877,
1726.212,0.0003189601,
1724.284,0.0002112123,
1722.355,0.0001383555,
1720.426,9.107726E-5,
1718.497,4.892039E-5,
1716.569,3.02555E-5,
1714.640,3.839538E-5,
1712.711,3.98044E-5,
1710.783,3.627627E-5,
1708.854,2.801812E-5,
1706.925,2.63269E-5,
1704.996,6.065195E-5,
1703.068,0.0001231899,
1701.139,0.000218645,
1699.210,0.000375028,
1697.281,0.0006408237,
1695.353,0.001070095,
1693.424,0.001741366,
1691.495,0.002770948,
1689.567,0.004205347,
1687.638,0.005800968,
1685.709,0.007024554,
1683.780,0.007429938,
1681.852,0.007015076,
1679.923,0.006167076,
1677.994,0.005314578,
1676.065,0.004674982,
1674.137,0.00424312,
1672.208,0.003908294,
1670.279,0.003583644,
1668.350,0.003263998,
1666.422,0.002977112,
1664.493,0.002714351,
1662.564,0.002450295,
1660.636,0.002199069,
1658.707,0.001986437,
1656.778,0.001797237,
1654.849,0.001615657,
1652.921,0.001472537,
1650.992,0.001382387,
1649.063,0.001309904,
1647.134,0.001238053,
1645.206,0.001174929,
1643.277,0.00111661,
1641.348,0.001059341,
1639.420,0.001010415,
1637.491,0.000976057,
1635.562,0.0009588387,
1633.633,0.0009529356,
1631.705,0.0009427782,
1629.776,0.0009210724,
1627.847,0.0008900784,
1625.918,0.0008598554,
1623.990,0.0008342901,
1622.061,0.0008061128,
1620.132,0.0007815417,
1618.204,0.0007697557,
1616.275,0.0007566338,
1614.346,0.0007286305,
1612.417,0.0006973115,
1610.489,0.0006838717,
1608.560,0.0006907304,
1606.631,0.0006983574,
1604.702,0.0006931921,
1602.774,0.0006783011,
1600.845,0.0006612698,
1598.916,0.000644077,
1596.988,0.0006201285,
1595.059,0.0005932294,
1593.130,0.0005786266,
1591.201,0.0005751502,
1589.273,0.0005737078,
1587.344,0.0005775189,
1585.415,0.0005832128,
1583.486,0.0005745672,
1581.558,0.0005543729,
1579.629,0.0005476853,
1577.700,0.0005529895,
1575.771,0.0005529394,
1573.843,0.0005493015,
1571.914,0.0005402267,
1569.985,0.0005216342,
1568.057,0.0005064304,
1566.128,0.0005095055,
1564.199,0.0005171408,
1562.270,0.0005146667,
1560.342,0.0005176954,
1558.413,0.0005269565,
1556.484,0.0005259688,
1554.555,0.0005189438,
1552.627,0.0005146298,
1550.698,0.0005122599,
1548.769,0.0005092552,
1546.841,0.0005017966,
1544.912,0.0004908144,
1542.983,0.0004863175,
1541.054,0.0004936811,
1539.126,0.0005081968,
1537.197,0.0005260519,
1535.268,0.0005404303,
1533.339,0.0005437501,
1531.411,0.0005381276,
1529.482,0.000527489,
1527.553,0.0005173206,
1525.625,0.0005185262,
1523.696,0.0005327343,
1521.767,0.0005462587,
1519.838,0.0005511619,
1517.910,0.000551152,
1515.981,0.0005490344,
1514.052,0.0005546129,
1512.123,0.0005686295,
1510.195,0.0005640055,
1508.266,0.000538194,
1506.337,0.00053751,
1504.409,0.0005750342,
1502.480,0.0006071851,
1500.551,0.000607602,
1498.622,0.0005866244,
1496.694,0.0005744726,
1494.765,0.0006025548,
1492.836,0.000652225,
1490.907,0.0006753289,
1488.979,0.0006672956,
1487.050,0.0006590065,
1485.121,0.0006716696,
1483.193,0.0007026767,
1481.264,0.0007269077,
1479.335,0.0007298811,
1477.406,0.0007313872,
1475.478,0.0007467045,
1473.549,0.0007646509,
1471.620,0.0007917574,
1469.691,0.0008422951,
1467.763,0.0008859697,
1465.834,0.0009018221,
1463.905,0.0009082377,
1461.976,0.0009188499,
1460.048,0.0009469396,
1458.119,0.0009889731,
1456.190,0.0009847294,
1454.262,0.0008756997,
1452.333,0.000696936,
1450.404,0.0005450285,
1448.475,0.0004716411,
1446.547,0.0004672348,
1444.618,0.0005151685,
1442.689,0.0006081337,
1440.760,0.0007351525,
1438.832,0.0008517689,
1436.903,0.0008982743,
1434.974,0.0008666966,
1433.046,0.0008004746,
1431.117,0.0007478485,
1429.188,0.0007266296,
1427.259,0.0007281683,
1425.331,0.0007317603,
1423.402,0.0007164327,
1421.473,0.0006839402,
1419.544,0.0006623675,
1417.616,0.0006849619,
1415.687,0.0007382547,
1413.758,0.0007862013,
1411.830,0.0008483112,
1409.901,0.0009390919,
1407.972,0.001028082,
1406.043,0.001112153,
1404.115,0.001212818,
1402.186,0.001319636,
1400.257,0.001418652,
1398.328,0.001527902,
1396.400,0.001679115,
1394.471,0.001867657,
1392.542,0.00205339,
1390.614,0.002245781,
1388.685,0.002485941,
1386.756,0.002769653,
1384.827,0.00308483,
1382.899,0.003433623,
1380.970,0.003826345,
1379.041,0.004298666,
1377.112,0.004873808,
1375.184,0.00555985,
1373.255,0.00637852,
1371.326,0.007304863,
1369.398,0.008227776,
1367.469,0.00899771,
1365.540,0.009478501,
1363.611,0.009625513,
1361.683,0.009492079,
1359.754,0.009044926,
1357.825,0.008124755,
1355.896,0.006710784,
1353.968,0.005054268,
1352.039,0.003520484,
1350.110,0.002402062,
1348.181,0.001829693,
1346.253,0.001730203,
1344.324,0.00182288,
1342.395,0.001791782,
1340.467,0.001600744,
1338.538,0.001546216,
1336.609,0.001909346,
1334.680,0.002632299,
1332.752,0.003359436,
1330.823,0.003729838,
1328.894,0.003631018,
1326.965,0.003197637,
1325.037,0.002629497,
1323.108,0.00208675,
1321.179,0.001646691,
1319.251,0.001283909,
1317.322,0.0009759965,
1315.393,0.0007557007,
1313.464,0.0006401585,
1311.536,0.0006486468,
1309.607,0.0008406044,
1307.678,0.001265612,
1305.749,0.001905149,
1303.821,0.002630902,
1301.892,0.003237475,
1299.963,0.003560796,
1298.035,0.00356357,
1296.106,0.003327058,
1294.177,0.00297353,
1292.248,0.002591984,
1290.320,0.002225483,
1288.391,0.001897884,
1286.462,0.001630385,
1284.533,0.001415081,
1282.605,0.001228251,
1280.676,0.001077789,
1278.747,0.0009756859,
1276.819,0.0009146083,
1274.890,0.0008770666,
1272.961,0.000837067,
1271.032,0.0007831596,
1269.104,0.0007289815,
1267.175,0.0006867066,
1265.246,0.0006570508,
1263.317,0.000636022,
1261.389,0.0006147306,
1259.460,0.0005865814,
1257.531,0.0005505954,
1255.603,0.0005079518,
1253.674,0.0004661698,
1251.745,0.0004287059,
1249.816,0.0003961347,
1247.888,0.0003700035,
1245.959,0.0003450068,
1244.030,0.0003205322,
1242.101,0.000298582,
1240.173,0.0002795956,
1238.244,0.0002790269,
1236.315,0.0002959385,
1234.386,0.0002883847,
1232.458,0.0002384141,
1230.529,0.0001840161,
1228.600,0.0001620666,
1226.672,0.0001606652,
1224.743,0.0001471495,
1222.814,0.0001411415,
1220.885,0.0001807151,
1218.957,0.0002498809,
1217.028,0.0003134238,
1215.099,0.0003623547,
1213.170,0.0003928498,
1211.242,0.0003900153,
1209.313,0.0003488938,
1207.384,0.0002986856,
1205.456,0.0002659645,
1203.527,0.0002529336,
1201.598,0.0002513819,
1199.669,0.0002554995,
1197.741,0.000263137,
1195.812,0.0002534135,
1193.883,0.0002240746,
1191.954,0.0002049358,
1190.026,0.0002082647,
1188.097,0.0002159671,
1186.168,0.0002287895,
1184.240,0.0002350142,
1182.311,0.000211178,
1180.382,0.0001724165,
1178.453,0.0001592837,
1176.525,0.0001546028,
1174.596,0.0001334747,
1172.667,0.0001205719,
1170.738,0.0001291918,
1168.810,0.0001415591,
1166.881,0.000130566,
1164.952,0.0001173539,
1163.024,0.0001235033,
1161.095,0.0001369006,
1159.166,0.0001426111,
1157.237,0.000148165,
1155.309,0.000150357,
1153.380,0.0001220612,
1151.451,8.187183E-5,
1149.522,9.366734E-5,
1147.594,0.0001220777,
1145.665,0.0001121434,
1143.736,0.0001037565,
1141.807,0.000128738,
1139.879,0.0001548782,
1137.950,0.0001412051,
1136.021,8.789024E-5,
1134.093,4.408547E-5,
1132.164,3.649475E-5,
1130.235,3.903299E-5,
1128.306,6.412117E-5,
1126.378,8.245057E-5,
1124.449,8.171513E-5,
1122.520,6.857124E-5,
1120.591,5.488221E-5,
1118.663,5.734138E-5,
1116.734,9.344087E-5,
1114.805,0.0001155304,
1112.877,0.0001317435,
1110.948,0.0001492488,
1109.019,0.0001441267,
1107.090,0.0001352624,
1105.162,0.0001058744,
1103.233,7.484339E-5,
1101.304,9.583346E-5,
1099.375,0.0001137461,
1097.447,8.514643E-5,
1095.518,5.671113E-5,
1093.589,4.557216E-5,
1091.661,5.490246E-5,
1089.732,7.830125E-5,
1087.803,0.0001105075,
1085.874,8.822945E-5,
1083.946,3.62268E-5,
1082.017,3.460999E-5,
1080.088,6.888215E-5,
1078.159,0.0001144797,
1076.231,0.0001205565,
1074.302,0.0001288951,
1072.373,0.0001176233,
1070.445,9.606977E-5,
1068.516,0.0001032583,
1066.587,8.689851E-5,
1064.658,8.346406E-5,
1062.730,8.047731E-5,
1060.801,7.429238E-5,
1058.872,6.847973E-5,
1056.943,9.405452E-5,
1055.015,0.0001163935,
1053.086,0.0001247314,
1051.157,0.0001385851,
1049.229,0.0001373928,
1047.300,0.0001283083,
1045.371,0.0001137837,
1043.442,0.0001002011,
1041.514,7.765756E-5,
1039.585,9.053048E-5,
1037.656,0.000102946,
1035.727,0.0001146098,
1033.799,0.0001348683,
1031.870,0.000149724,
1029.941,0.0001680541,
1028.012,0.0001524919,
1026.084,0.0001161183,
1024.155,9.057076E-5,
1022.226,6.931808E-5,
1020.298,5.198262E-5,
1018.369,4.58652E-5,
1016.440,3.578901E-5,
1014.511,3.607455E-5,
1012.583,4.904773E-5,
1010.654,6.713731E-5,
1008.725,6.269117E-5,
1006.796,3.436884E-5,
1004.868,4.589699E-5,
1002.939,8.461458E-5,
1001.010,9.442228E-5,
999.082,7.091555E-5,
997.153,3.079903E-5,
995.224,7.410674E-5,
993.295,0.0001068802,
991.367,0.0001022424,
989.438,7.612268E-5,
987.509,5.656948E-5,
985.580,4.003093E-5,
983.652,4.171822E-5,
981.723,4.646754E-5,
979.794,7.933514E-5,
977.866,0.0001009386,
975.937,8.40397E-5,
974.008,5.92185E-5,
972.079,7.692328E-5,
970.151,7.125612E-5,
968.222,7.819894E-5,
966.293,7.251788E-5,
964.364,4.569794E-5,
962.436,1.484301E-5,
960.507,1.600495E-5,
958.578,9.856688E-6,
956.650,3.545017E-5,
954.721,6.985677E-5,
952.792,5.256059E-5,
950.863,3.099478E-5,
948.935,4.213315E-5,
947.006,4.376499E-5,
945.077,4.2346E-5,
943.148,4.483305E-5,
941.220,1.808676E-5,
939.291,4.341397E-5,
937.362,6.256491E-5,
935.434,7.169809E-5,
933.505,9.497756E-5,
931.576,9.207583E-5,
929.647,5.391546E-5,
927.719,5.383757E-5,
925.790,6.95612E-5,
923.861,8.643393E-5,
921.932,7.816493E-5,
920.004,6.55239E-5,
918.075,5.144653E-5,
916.146,5.428604E-5,
914.217,6.793365E-5,
912.289,5.95158E-5,
910.360,6.842838E-5,
908.431,5.588235E-5,
906.503,5.025819E-5,
904.574,7.575516E-5,
902.645,6.569281E-5,
900.716,6.478989E-5,
898.788,8.899896E-5,
896.859,6.545166E-5,
894.930,5.68258E-5,
893.001,3.972919E-5,
891.073,3.998083E-5,
889.144,7.164991E-5,
887.215,0.0001116159,
885.287,0.0001095153,
883.358,0.0001200786,
881.429,9.018538E-5,
879.500,7.374879E-5,
877.572,7.10059E-5,
875.643,6.104854E-5,
873.714,0.0001035067,
871.785,9.638284E-5,
869.857,5.796085E-5,
867.928,6.256324E-5,
865.999,9.78122E-5,
864.071,5.958929E-5,
862.142,2.593816E-5,
860.213,0.0001111646,
858.284,0.000112476,
856.356,6.248005E-5,
854.427,6.909171E-5,
852.498,6.641947E-5,
850.569,5.573558E-5,
848.641,9.565112E-5,
846.712,9.181126E-5,
844.783,8.737895E-5,
842.855,0.0001091276,
840.926,0.0001322324,
838.997,0.0001382906,
837.068,0.0001453405,
835.140,0.0001585028,
833.211,0.0001360473,
831.282,0.0001209911,
829.353,0.0001195138,
827.425,7.628163E-5,
825.496,6.239054E-5,
823.567,6.724356E-5,
821.639,5.834792E-5,
819.710,3.858588E-5,
817.781,4.33807E-5,
815.852,7.769278E-5,
813.924,9.47876E-5,
811.995,8.354749E-5,
810.066,8.308829E-5,
808.137,0.0001032435,
806.209,0.0001109062,
804.280,0.0001051942,
802.351,0.0001065054,
800.422,9.020366E-5,
798.494,4.825582E-5,
796.565,8.318366E-5,
794.636,9.932081E-5,
792.708,0.0001042688,
790.779,0.0001408318,
788.850,0.0001133325,
786.921,9.469978E-5,
784.993,9.977548E-5,
783.064,9.103495E-5,
781.135,6.829765E-5,
779.206,4.004033E-5,
777.278,2.426618E-5,
775.349,4.021821E-5,
773.420,9.992656E-5,
771.492,0.000117319,
769.563,9.213907E-5,
767.634,8.795225E-5,
765.705,9.435458E-5,
763.777,9.477444E-5,
761.848,0.0001723855,
759.919,0.0001997607,
757.990,0.0001442987,
756.062,7.352785E-5,
754.133,0.000119795,
752.204,0.0002151344,
750.276,0.0002332585,
748.347,0.0001491382,
746.418,6.709343E-5,
744.489,0.0001197668,
742.561,0.0001626295,
740.632,0.0001745337,
738.703,0.0001246864,
736.774,8.40772E-5,
734.846,9.158698E-5,
732.917,7.805888E-5,
730.988,7.419674E-5,
729.060,0.0001055931,
727.131,0.0001316368,
725.202,0.0001550484,
723.273,0.0001771353,
721.345,0.0001466615,
719.416,0.0001202083,
717.487,0.0001526017,
715.558,0.0001357192,
713.630,0.0001097166,
711.701,9.963108E-5,
709.772,0.0001054225,
707.843,0.0001305487,
705.915,0.0001363496,
703.986,8.002712E-5,
702.057,8.544752E-5,
700.129,0.0001349181,
698.200,0.000146373,
696.271,0.0001837428,
694.342,0.0001645537,
692.414,9.873511E-5,
690.485,0.000103873,
688.556,0.0001653833,
686.627,0.0002005379,
684.699,0.0001582355,
682.770,0.0001866756,
680.841,0.0001965301,
678.913,0.0002069293,
676.984,0.0001484088,
675.055,8.092056E-5,
673.126,9.032589E-5,
671.198,9.596156E-5,
669.269,0.0001752983,
667.340,0.0002395324,
665.411,0.0001881175,
663.483,0.0001575655,
661.554,0.0001862603,
659.625,0.0001646338,
657.697,0.0001334924,
655.768,9.710262E-5,
653.839,0.0001904436,
651.910,0.000283994,
649.982,0.0002574441,
648.053,0.0001490915,
646.124,7.623043E-5,
644.195,0.000203954,
642.267,0.0002020718,
640.338,0.0001054851,
638.409,0.0001134315,
636.481,0.0001950067,
634.552,0.0002572671,
632.623,0.0003275827,
630.694,0.000376556,
628.766,0.0003868125,
626.837,0.0003284374,
624.908,0.0002150518,
622.979,0.0001659237,
621.051,0.0001691626,
619.122,0.000140254,
617.193,0.0002186177,
615.265,0.0002756541,
613.336,0.0002059302,
611.407,0.0001153419,
609.478,0.0001958086,
607.550,0.0002719845,
605.621,0.0004246576,
603.692,0.0005096185,
601.763,0.0004514158,
599.835,0.0003162934,
597.906,0.0001718774,
595.977,0.0001075122,
594.048,0.0002021712,
592.120,0.0003338051,
590.191,0.0004309265,
588.262,0.00056766,
586.334,0.0006430054,
584.405,0.0003512907,
582.476,0.0002485255,
580.547,0.0003000599,
578.619,0.0002526195,
576.690,0.0002124403,
574.761,0.0002689286,
572.832,0.0004103569,
570.904,0.0004012052,
568.975,0.000234719,
567.046,0.0002221594,
565.118,0.0003444201,
563.189,0.0004876736,
561.260,0.0004312301,
559.331,0.000271872,
557.403,0.0002556242,
555.474,0.0002037033,
553.545,0.000235781,
551.616,0.0003944356,
549.688,0.000430872,
547.759,0.0002766348,
545.830,0.0002853961,
543.902,0.0002282871,
541.973,0.0001757735,
540.044,0.0003446485,
538.115,0.0003753442,
536.187,0.0004173186,
534.258,0.0006096634,
532.329,0.0006134526,
530.400,0.0006155815,
528.472,0.0008458745,
526.543,0.0008153511,
524.614,0.0005810168,
522.686,0.0003063389,
520.757,0.0002820359,
518.828,0.0002913056,
516.899,0.00039449,
514.971,0.0005174383,
513.042,0.0005572192,
511.113,0.0004962529,
509.184,0.0004952715,
507.256,0.0003812609,
505.327,0.0002421308,
503.398,0.0001642826,
501.470,0.0004552764,
499.541,0.0005378535,
497.612,0.0003220194,
495.683,0.000284441,
493.755,0.000480707,
491.826,0.0004815718,
489.897,0.0005152299,
487.968,0.0006817289,
486.040,0.0006082709,
484.111,0.0004318984,
482.182,0.0005109544,
480.253,0.0008696674,
478.325,0.0009141051,
476.396,0.0005782458,
474.467,0.000204703,
472.539,0.000262163,
470.610,0.0003293347,
468.681,0.0005025369,
466.752,0.000397809,
464.824,0.0004044929,
462.895,0.0006094956,
460.966,0.0006311826,
459.037,0.0002677999,
457.109,0.0003433896,
455.180,0.0006351635,
453.251,0.0007686289,
451.323,0.0007837024,
449.394,0.001205763,
447.465,0.0009673471,
445.536,0.0005437308,
443.608,0.0007906892,
441.679,0.0009769157,
439.750,0.001197045,
437.821,0.001522802,
435.893,0.00105139,
433.964,0.0004017979,
432.035,0.0006114052,
430.107,0.001218835,
428.178,0.001359159,
426.249,0.001567204,
424.320,0.001435989,
422.392,0.001434109,
420.463,0.001888901,
418.534,0.001360196,
416.605,0.0008162615,
414.677,0.000971537,
412.748,0.001783363,
410.819,0.002509232,
408.891,0.003047185,
406.962,0.003310508,
405.033,0.003145959,
403.104,0.003193027,
401.176,0.004594311,
399.247,0.005516495,
397.318,0.003557513,
395.389,0.002629474,
393.461,0.003052668,
391.532,0.003328342,
389.603,0.004326364,
387.675,0.004635234,
385.746,0.003776342,
383.817,0.003211322,
381.888,0.002123368,
379.960,0.003317939,
378.031,0.004473894,
376.102,0.005052913,
374.173,0.00575732,
