,cavity_after,
Wavenumbers [1/cm],Transmittance,
7496.969,0.1285396,
7495.040,0.128189,
7493.112,0.1272528,
7491.183,0.1254535,
7489.254,0.1233448,
7487.326,0.1218503,
7485.397,0.1207059,
7483.468,0.1189256,
7481.539,0.1166304,
7479.611,0.1149467,
7477.682,0.1144264,
7475.753,0.1143218,
7473.824,0.1135018,
7471.896,0.1117699,
7469.967,0.1099714,
7468.038,0.1085297,
7466.110,0.1070009,
7464.181,0.105425,
7462.252,0.1043477,
7460.323,0.1035462,
7458.395,0.1022035,
7456.466,0.1002709,
7454.537,0.09871125,
7452.608,0.09796759,
7450.680,0.09722136,
7448.751,0.09600636,
7446.822,0.09488052,
7444.893,0.09419411,
7442.965,0.09370455,
7441.036,0.09280554,
7439.107,0.09136832,
7437.179,0.08998235,
7435.250,0.08877058,
7433.321,0.08770369,
7431.392,0.08708952,
7429.464,0.08650503,
7427.535,0.0853226,
7425.606,0.08403917,
7423.677,0.08335605,
7421.749,0.08297144,
7419.820,0.08224805,
7417.891,0.08136474,
7415.963,0.0809896,
7414.034,0.08078734,
7412.105,0.08004634,
7410.176,0.07908411,
7408.248,0.07830375,
7406.319,0.07761919,
7404.390,0.07715588,
7402.461,0.07709088,
7400.533,0.07714963,
7398.604,0.07680989,
7396.675,0.07602207,
7394.747,0.07537836,
7392.818,0.07517707,
7390.889,0.07497901,
7388.960,0.074504,
7387.032,0.07392588,
7385.103,0.07337567,
7383.174,0.07300766,
7381.245,0.07300531,
7379.317,0.07298057,
7377.388,0.07235913,
7375.459,0.07143692,
7373.531,0.07074652,
7371.602,0.07059518,
7369.673,0.07120012,
7367.744,0.07192218,
7365.816,0.07198229,
7363.887,0.07154483,
7361.958,0.07102706,
7360.029,0.0706166,
7358.101,0.07038701,
7356.172,0.07021346,
7354.243,0.06987266,
7352.314,0.06951412,
7350.386,0.06962006,
7348.457,0.07019188,
7346.528,0.07057432,
7344.600,0.07035047,
7342.671,0.06984295,
7340.742,0.06974649,
7338.813,0.07035335,
7336.885,0.07107522,
7334.956,0.07130441,
7333.027,0.07117512,
7331.098,0.07118812,
7329.170,0.07143002,
7327.241,0.07151443,
7325.312,0.07150244,
7323.384,0.07190894,
7321.455,0.07264377,
7319.526,0.07310057,
7317.597,0.07322707,
7315.669,0.07333624,
7313.740,0.07343937,
7311.811,0.07366128,
7309.882,0.07421001,
7307.954,0.07506537,
7306.025,0.07601035,
7304.096,0.07668097,
7302.168,0.07676759,
7300.239,0.07646125,
7298.310,0.07670172,
7296.381,0.07773327,
7294.453,0.07876816,
7292.524,0.07958128,
7290.595,0.08040628,
7288.666,0.08122929,
7286.738,0.08193193,
7284.809,0.08265475,
7282.880,0.08353862,
7280.952,0.08427088,
7279.023,0.08476856,
7277.094,0.08528949,
7275.165,0.08599652,
7273.237,0.08707042,
7271.308,0.08849614,
7269.379,0.08986901,
7267.450,0.09095596,
7265.522,0.09193397,
7263.593,0.09267964,
7261.664,0.09285814,
7259.736,0.09283596,
7257.807,0.09355957,
7255.878,0.09539285,
7253.949,0.09755428,
7252.021,0.09924954,
7250.092,0.1006041,
7248.163,0.1018463,
7246.234,0.102899,
7244.306,0.1039486,
7242.377,0.1051546,
7240.448,0.1065468,
7238.519,0.1084155,
7236.591,0.1106235,
7234.662,0.1125601,
7232.733,0.114055,
7230.805,0.1152535,
7228.876,0.1163265,
7226.947,0.1176452,
7225.018,0.1194434,
7223.090,0.1214332,
7221.161,0.1233716,
7219.232,0.1254009,
7217.303,0.1274811,
7215.375,0.129497,
7213.446,0.1316308,
7211.517,0.1339722,
7209.589,0.136454,
7207.660,0.1388722,
7205.731,0.140707,
7203.802,0.1419523,
7201.874,0.1436849,
7199.945,0.1463174,
7198.016,0.1487817,
7196.087,0.1507071,
7194.159,0.1526069,
7192.230,0.154501,
7190.301,0.1566004,
7188.373,0.1589598,
7186.444,0.1610465,
7184.515,0.1627796,
7182.586,0.1642911,
7180.658,0.1658139,
7178.729,0.1677499,
7176.800,0.1699919,
7174.871,0.1721835,
7172.943,0.1741861,
7171.014,0.1760138,
7169.085,0.1778289,
7167.157,0.1796944,
7165.228,0.1814117,
7163.299,0.1827269,
7161.370,0.1835723,
7159.442,0.1845015,
7157.513,0.186129,
7155.584,0.1880791,
7153.655,0.1895822,
7151.727,0.1902913,
7149.798,0.1906129,
7147.869,0.1912593,
7145.941,0.192161,
7144.012,0.1929143,
7142.083,0.1934115,
7140.154,0.1935187,
7138.226,0.1932984,
7136.297,0.193197,
7134.368,0.1934916,
7132.439,0.1940247,
7130.511,0.1944375,
7128.582,0.19446,
7126.653,0.1943619,
7124.724,0.1943449,
7122.796,0.193877,
7120.867,0.1928252,
7118.938,0.1917395,
7117.010,0.1909342,
7115.081,0.19033,
7113.152,0.1895652,
7111.223,0.1884404,
7109.295,0.1871807,
7107.366,0.186026,
7105.437,0.1849458,
7103.508,0.1836587,
7101.580,0.1823857,
7099.651,0.1814651,
7097.722,0.1802097,
7095.794,0.1782813,
7093.865,0.1763143,
7091.936,0.1746265,
7090.007,0.1731806,
7088.079,0.1717909,
7086.150,0.1702666,
7084.221,0.168643,
7082.292,0.1667675,
7080.364,0.1645339,
7078.435,0.162341,
7076.506,0.1603968,
7074.578,0.1586872,
7072.649,0.1574559,
7070.720,0.156379,
7068.791,0.1549159,
7066.863,0.1531687,
7064.934,0.1512163,
7063.005,0.1491101,
7061.076,0.1469869,
7059.148,0.1447661,
7057.219,0.1425082,
7055.290,0.1405532,
7053.362,0.1389278,
7051.433,0.1372784,
7049.504,0.1355041,
7047.575,0.1336072,
7045.647,0.1315967,
7043.718,0.1297891,
7041.789,0.1283711,
7039.860,0.1270688,
7037.932,0.1254645,
7036.003,0.1235644,
7034.074,0.121657,
7032.146,0.1198334,
7030.217,0.1181182,
7028.288,0.1165263,
7026.359,0.1151529,
7024.431,0.1139449,
7022.502,0.1125093,
7020.573,0.1107903,
7018.644,0.1089956,
7016.716,0.107092,
7014.787,0.1052084,
7012.858,0.1037798,
7010.929,0.1027522,
7009.001,0.1014059,
7007.072,0.09961203,
7005.143,0.09804379,
7003.215,0.09695595,
7001.286,0.09612967,
6999.357,0.095354,
6997.428,0.09441661,
6995.500,0.09322558,
6993.571,0.09195249,
6991.642,0.09079529,
6989.713,0.08959476,
6987.785,0.08820383,
6985.856,0.08682141,
6983.927,0.08549986,
6981.999,0.08423416,
6980.070,0.08324056,
6978.141,0.08244666,
6976.212,0.08145674,
6974.284,0.08032994,
6972.355,0.0794635,
6970.426,0.07886991,
6968.497,0.07823437,
6966.569,0.07737777,
6964.640,0.07646852,
6962.711,0.07564087,
6960.783,0.07479625,
6958.854,0.0739307,
6956.925,0.07325689,
6954.996,0.07282954,
6953.068,0.07220654,
6951.139,0.07123824,
6949.210,0.07037803,
6947.281,0.06988566,
6945.353,0.0695652,
6943.424,0.06900091,
6941.495,0.06830569,
6939.567,0.06787191,
6937.638,0.06757619,
6935.709,0.06721326,
6933.780,0.06665107,
6931.852,0.06596079,
6929.923,0.06534756,
6927.994,0.06474617,
6926.065,0.06428046,
6924.137,0.06406919,
6922.208,0.06392284,
6920.279,0.06391318,
6918.350,0.06412229,
6916.422,0.06413046,
6914.493,0.06360567,
6912.564,0.0628401,
6910.636,0.06230155,
6908.707,0.06201304,
6906.778,0.06181289,
6904.849,0.06173856,
6902.921,0.06176185,
6900.992,0.06191194,
6899.063,0.0621369,
6897.134,0.06202803,
6895.206,0.06173965,
6893.277,0.06167876,
6891.348,0.06162657,
6889.420,0.06154465,
6887.491,0.06148605,
6885.562,0.06131342,
6883.633,0.06129055,
6881.705,0.06145184,
6879.776,0.06153839,
6877.847,0.06174847,
6875.918,0.06200376,
6873.990,0.06188882,
6872.061,0.06161882,
6870.132,0.06163575,
6868.204,0.0619256,
6866.275,0.06227357,
6864.346,0.06254379,
6862.417,0.06276621,
6860.489,0.06303532,
6858.560,0.06322848,
6856.631,0.06340591,
6854.702,0.06388205,
6852.774,0.06444925,
6850.845,0.06486065,
6848.916,0.06538523,
6846.988,0.0659405,
6845.059,0.06620341,
6843.130,0.06651305,
6841.201,0.0671748,
6839.273,0.06787591,
6837.344,0.0685041,
6835.415,0.06908861,
6833.486,0.06947296,
6831.558,0.06975918,
6829.629,0.07021633,
6827.700,0.07093721,
6825.772,0.07167809,
6823.843,0.07233619,
6821.914,0.07314895,
6819.985,0.07397369,
6818.057,0.07463487,
6816.128,0.07530792,
6814.199,0.07601266,
6812.270,0.07674427,
6810.342,0.07761274,
6808.413,0.07861713,
6806.484,0.07975411,
6804.555,0.08095063,
6802.627,0.08192103,
6800.698,0.08276447,
6798.769,0.08393663,
6796.841,0.08525097,
6794.912,0.08635077,
6792.983,0.08757941,
6791.054,0.08910197,
6789.126,0.09048776,
6787.197,0.09176169,
6785.268,0.09324958,
6783.339,0.09465683,
6781.411,0.09585519,
6779.482,0.09727676,
6777.553,0.09891962,
6775.625,0.1005263,
6773.696,0.1020916,
6771.767,0.1036424,
6769.838,0.105259,
6767.910,0.1069731,
6765.981,0.108719,
6764.052,0.110593,
6762.123,0.1126381,
6760.195,0.1145864,
6758.266,0.1163559,
6756.337,0.1182192,
6754.409,0.1202852,
6752.480,0.1224361,
6750.551,0.1245029,
6748.622,0.1264908,
6746.694,0.1285191,
6744.765,0.1305046,
6742.836,0.1325511,
6740.907,0.1348334,
6738.979,0.1370679,
6737.050,0.1389628,
6735.121,0.1407202,
6733.193,0.1428916,
6731.264,0.1455729,
6729.335,0.1481694,
6727.406,0.1503733,
6725.478,0.1523818,
6723.549,0.1543233,
6721.620,0.1561955,
6719.691,0.1580583,
6717.763,0.1600699,
6715.834,0.1620498,
6713.905,0.1635804,
6711.977,0.1648517,
6710.048,0.1662572,
6708.119,0.1678396,
6706.190,0.1697234,
6704.262,0.1718026,
6702.333,0.1735955,
6700.404,0.1750018,
6698.475,0.176182,
6696.547,0.1771781,
6694.618,0.1781619,
6692.689,0.1791775,
6690.760,0.1799024,
6688.832,0.1801882,
6686.903,0.1803779,
6684.974,0.1809526,
6683.046,0.1818284,
6681.117,0.1824236,
6679.188,0.1824926,
6677.259,0.182266,
6675.331,0.1820774,
6673.402,0.1819899,
6671.473,0.1817925,
6669.544,0.1814407,
6667.616,0.1809573,
6665.687,0.1802579,
6663.758,0.1794223,
6661.830,0.1785942,
6659.901,0.177779,
6657.972,0.1769414,
6656.043,0.175952,
6654.115,0.1747488,
6652.186,0.1735009,
6650.257,0.172143,
6648.328,0.1705372,
6646.400,0.1689512,
6644.471,0.1675533,
6642.542,0.1660974,
6640.614,0.1644488,
6638.685,0.1628736,
6636.756,0.1614562,
6634.827,0.1598789,
6632.899,0.1580524,
6630.970,0.1561058,
6629.041,0.154215,
6627.112,0.1525732,
6625.184,0.1509753,
6623.255,0.1492122,
6621.326,0.147432,
6619.398,0.1455549,
6617.469,0.1434687,
6615.540,0.1414453,
6613.611,0.1395802,
6611.683,0.1376203,
6609.754,0.1355625,
6607.825,0.1336748,
6605.896,0.1319288,
6603.968,0.1300229,
6602.039,0.1278934,
6600.110,0.1258613,
6598.182,0.1242267,
6596.253,0.1227467,
6594.324,0.1209765,
6592.395,0.1190157,
6590.467,0.1171939,
6588.538,0.1154909,
6586.609,0.1137529,
6584.680,0.1119792,
6582.752,0.1103408,
6580.823,0.1088534,
6578.894,0.1072125,
6576.965,0.1054383,
6575.037,0.1039142,
6573.108,0.1026234,
6571.179,0.1012253,
6569.251,0.0996389,
6567.322,0.09811908,
6565.393,0.09681349,
6563.464,0.09541266,
6561.536,0.09371071,
6559.607,0.09209231,
6557.678,0.09078226,
6555.749,0.0895272,
6553.821,0.08825614,
6551.892,0.08709656,
6549.963,0.08603624,
6548.035,0.08490954,
6546.106,0.08366453,
6544.177,0.08249173,
6542.248,0.08141235,
6540.320,0.08028701,
6538.391,0.07918186,
6536.462,0.07831115,
6534.533,0.07768907,
6532.605,0.07696892,
6530.676,0.07598277,
6528.747,0.07494501,
6526.819,0.07390639,
6524.890,0.07282336,
6522.961,0.07185125,
6521.032,0.07103064,
6519.104,0.07027015,
6517.175,0.06962173,
6515.246,0.06904885,
6513.317,0.06836963,
6511.389,0.06757487,
6509.460,0.06685077,
6507.531,0.06630851,
6505.603,0.06582569,
6503.674,0.06522888,
6501.745,0.06451906,
6499.816,0.06391995,
6497.888,0.06356665,
6495.959,0.06318592,
6494.030,0.06260892,
6492.101,0.06218358,
6490.173,0.06209879,
6488.244,0.06195555,
6486.315,0.0614617,
6484.386,0.06086863,
6482.458,0.06048722,
6480.529,0.06024666,
6478.600,0.05990194,
6476.672,0.05949879,
6474.743,0.05916457,
6472.814,0.05882245,
6470.885,0.05855092,
6468.957,0.0585047,
6467.028,0.05850015,
6465.099,0.05827302,
6463.170,0.05797448,
6461.242,0.05790742,
6459.313,0.05795106,
6457.384,0.05783919,
6455.456,0.05764077,
6453.527,0.05754603,
6451.598,0.05754366,
6449.669,0.05752921,
6447.741,0.05744865,
6445.812,0.05735223,
6443.883,0.05742991,
6441.954,0.05767704,
6440.026,0.05781338,
6438.097,0.05769803,
6436.168,0.05746273,
6434.240,0.05745273,
6432.311,0.05781208,
6430.382,0.05827153,
6428.453,0.05866841,
6426.525,0.05893008,
6424.596,0.05895763,
6422.667,0.05892421,
6420.738,0.05902624,
6418.810,0.05921717,
6416.881,0.05935002,
6414.952,0.05948052,
6413.024,0.0598567,
6411.095,0.06042536,
6409.166,0.06093091,
6407.237,0.0613196,
6405.309,0.06163283,
6403.380,0.06187665,
6401.451,0.06213233,
6399.522,0.06256795,
6397.594,0.06313273,
6395.665,0.06366384,
6393.736,0.06423597,
6391.808,0.06489196,
6389.879,0.06550488,
6387.950,0.06604217,
6386.021,0.06660489,
6384.093,0.06727247,
6382.164,0.06796613,
6380.235,0.06852035,
6378.306,0.06895002,
6376.378,0.06953471,
6374.449,0.07046068,
6372.520,0.07152019,
6370.591,0.07239853,
6368.663,0.07309352,
6366.734,0.0738431,
6364.805,0.07478599,
6362.877,0.07586947,
6360.948,0.0770428,
6359.019,0.07830711,
6357.090,0.0795194,
6355.162,0.08053453,
6353.233,0.08148196,
6351.304,0.08251619,
6349.375,0.08361773,
6347.447,0.08481002,
6345.518,0.08613717,
6343.589,0.08750183,
6341.661,0.08888733,
6339.732,0.09043811,
6337.803,0.09213989,
6335.874,0.09382161,
6333.946,0.09541637,
6332.017,0.09701442,
6330.088,0.09869643,
6328.159,0.1003589,
6326.231,0.1019415,
6324.302,0.1036417,
6322.373,0.1055313,
6320.445,0.1074082,
6318.516,0.1092612,
6316.587,0.1112225,
6314.658,0.1132391,
6312.730,0.1152993,
6310.801,0.1174647,
6308.872,0.1196518,
6306.943,0.1217674,
6305.015,0.1238214,
6303.086,0.1259298,
6301.157,0.128203,
6299.229,0.1305276,
6297.300,0.1327975,
6295.371,0.1351353,
6293.442,0.1375045,
6291.514,0.139747,
6289.585,0.1420026,
6287.656,0.1443731,
6285.727,0.1466764,
6283.799,0.1488734,
6281.870,0.1511582,
6279.941,0.1535889,
6278.013,0.1559839,
6276.084,0.1582323,
6274.155,0.1603968,
6272.226,0.1625117,
6270.298,0.1646223,
6268.369,0.166802,
6266.440,0.168927,
6264.511,0.1708637,
6262.583,0.1727622,
6260.654,0.1747333,
6258.725,0.1766685,
6256.796,0.1784819,
6254.868,0.1801144,
6252.939,0.1814978,
6251.010,0.1826796,
6249.082,0.1837877,
6247.153,0.1848874,
6245.224,0.1860377,
6243.295,0.187203,
6241.367,0.1880763,
6239.438,0.18858,
6237.509,0.1890945,
6235.580,0.1896624,
6233.652,0.1899126,
6231.723,0.1898972,
6229.794,0.1899159,
6227.866,0.1898689,
6225.937,0.1896193,
6224.008,0.1893134,
6222.079,0.18895,
6220.151,0.1883399,
6218.222,0.187563,
6216.293,0.1868424,
6214.364,0.1860859,
6212.436,0.1850535,
6210.507,0.1837844,
6208.578,0.1825495,
6206.650,0.1813727,
6204.721,0.1799183,
6202.792,0.1781141,
6200.863,0.1762871,
6198.935,0.1745665,
6197.006,0.1728311,
6195.077,0.17107,
6193.148,0.1693656,
6191.220,0.1676842,
6189.291,0.1658381,
6187.362,0.1637577,
6185.434,0.161595,
6183.505,0.159387,
6181.576,0.1571279,
6179.647,0.1549917,
6177.719,0.1529849,
6175.790,0.1508925,
6173.861,0.1486692,
6171.932,0.1464316,
6170.004,0.1442329,
6168.075,0.1420538,
6166.146,0.1398869,
6164.218,0.1377805,
6162.289,0.1356978,
6160.360,0.1334923,
6158.431,0.1312624,
6156.503,0.129198,
6154.574,0.1271452,
6152.645,0.1249441,
6150.716,0.1227139,
6148.788,0.1205913,
6146.859,0.1185968,
6144.930,0.1166296,
6143.001,0.1146712,
6141.073,0.1128626,
6139.144,0.1111583,
6137.215,0.1093807,
6135.287,0.1074738,
6133.358,0.1054869,
6131.429,0.1035731,
6129.500,0.1018401,
6127.572,0.1002419,
6125.643,0.09858734,
6123.714,0.09674484,
6121.785,0.09493865,
6119.857,0.09333754,
6117.928,0.09176971,
6115.999,0.09017395,
6114.071,0.0886464,
6112.142,0.08724291,
6110.213,0.08599991,
6108.284,0.08481782,
6106.356,0.08352137,
6104.427,0.08212087,
6102.498,0.08079187,
6100.569,0.07953657,
6098.641,0.07814213,
6096.712,0.07671594,
6094.783,0.07558251,
6092.855,0.07472267,
6090.926,0.07389254,
6088.997,0.07287423,
6087.068,0.07167047,
6085.140,0.07049591,
6083.211,0.06947247,
6081.282,0.06861264,
6079.353,0.06781293,
6077.425,0.06690383,
6075.496,0.06596317,
6073.567,0.06516335,
6071.639,0.06441737,
6069.710,0.06361454,
6067.781,0.0627834,
6065.852,0.06193084,
6063.924,0.06114729,
6061.995,0.06059826,
6060.066,0.06024688,
6058.137,0.05980323,
6056.209,0.05911941,
6054.280,0.05840508,
6052.351,0.05779487,
6050.423,0.0572231,
6048.494,0.0567045,
6046.565,0.05630884,
6044.636,0.0560234,
6042.708,0.05576201,
6040.779,0.05539972,
6038.850,0.05484579,
6036.921,0.05422475,
6034.993,0.0537641,
6033.064,0.05350345,
6031.135,0.05328348,
6029.206,0.0529859,
6027.278,0.05268297,
6025.349,0.05234968,
6023.420,0.05194275,
6021.492,0.05172852,
6019.563,0.05176473,
6017.634,0.05170881,
6015.705,0.05148742,
6013.777,0.05126505,
6011.848,0.05100856,
6009.919,0.0507704,
6007.990,0.05070892,
6006.062,0.05074338,
6004.133,0.05079723,
6002.204,0.05085135,
6000.276,0.05080861,
5998.347,0.05068675,
5996.418,0.05056567,
5994.489,0.05050423,
5992.561,0.05052961,
5990.632,0.05053794,
5988.703,0.05047939,
5986.774,0.05044655,
5984.846,0.05051516,
5982.917,0.05064883,
5980.988,0.05071238,
5979.060,0.05074598,
5977.131,0.05094034,
5975.202,0.05122325,
5973.273,0.05138147,
5971.345,0.0514198,
5969.416,0.05152076,
5967.487,0.05175684,
5965.558,0.05200887,
5963.630,0.05229053,
5961.701,0.05271676,
5959.772,0.05313077,
5957.844,0.05334268,
5955.915,0.05356132,
5953.986,0.05403301,
5952.057,0.05453764,
5950.129,0.05487773,
5948.200,0.0552238,
5946.271,0.05558003,
5944.342,0.05586275,
5942.414,0.05623527,
5940.485,0.05674828,
5938.556,0.0572849,
5936.627,0.05786745,
5934.699,0.05852188,
5932.770,0.05911715,
5930.841,0.05964025,
5928.913,0.06027334,
5926.984,0.06104878,
5925.055,0.06180055,
5923.126,0.06249269,
5921.198,0.06322345,
5919.269,0.06399743,
5917.340,0.06481221,
5915.411,0.0656805,
5913.483,0.06654447,
5911.554,0.06739837,
5909.625,0.06824826,
5907.697,0.06906494,
5905.768,0.06992918,
5903.839,0.0709632,
5901.910,0.07214643,
5899.982,0.07338528,
5898.053,0.07465801,
5896.124,0.07597779,
5894.195,0.07730658,
5892.267,0.0785354,
5890.338,0.07969102,
5888.409,0.08101696,
5886.481,0.08256104,
5884.552,0.08412264,
5882.623,0.08561976,
5880.694,0.08708102,
5878.766,0.08857495,
5876.837,0.09022009,
5874.908,0.0920136,
5872.979,0.09381036,
5871.051,0.09555584,
5869.122,0.09741379,
5867.193,0.09946027,
5865.265,0.1014546,
5863.336,0.1032893,
5861.407,0.1052016,
5859.478,0.1073765,
5857.550,0.1097396,
5855.621,0.1120777,
5853.692,0.1143193,
5851.763,0.1166095,
5849.835,0.1190386,
5847.906,0.1215365,
5845.977,0.1240245,
5844.049,0.1265007,
5842.120,0.1289834,
5840.191,0.1314558,
5838.262,0.1339492,
5836.334,0.1365711,
5834.405,0.1392644,
5832.476,0.1418854,
5830.547,0.1444779,
5828.619,0.1470513,
5826.690,0.1495349,
5824.761,0.1520064,
5822.832,0.1545285,
5820.904,0.1569869,
5818.975,0.1593659,
5817.046,0.161859,
5815.118,0.164464,
5813.189,0.1669341,
5811.260,0.1691814,
5809.331,0.1712628,
5807.403,0.1731823,
5805.474,0.1750264,
5803.545,0.1769097,
5801.616,0.1787015,
5799.688,0.1803085,
5797.759,0.1818494,
5795.830,0.1832881,
5793.902,0.1844714,
5791.973,0.1854357,
5790.044,0.1863296,
5788.115,0.1871051,
5786.187,0.1876125,
5784.258,0.1879404,
5782.329,0.1882199,
5780.400,0.1883978,
5778.472,0.1884031,
5776.543,0.1881932,
5774.614,0.1877598,
5772.686,0.1871713,
5770.757,0.1863901,
5768.828,0.1853316,
5766.899,0.1841515,
5764.971,0.1830109,
5763.042,0.1817954,
5761.113,0.1803864,
5759.184,0.1788219,
5757.256,0.1771158,
5755.327,0.1753221,
5753.398,0.1735543,
5751.470,0.1717659,
5749.541,0.1698701,
5747.612,0.1678413,
5745.683,0.1656333,
5743.755,0.1633011,
5741.826,0.1610016,
5739.897,0.1587835,
5737.968,0.1565592,
5736.040,0.1542942,
5734.111,0.1520102,
5732.182,0.1497311,
5730.254,0.1475276,
5728.325,0.1453419,
5726.396,0.1429972,
5724.467,0.1405479,
5722.539,0.1382157,
5720.610,0.1359549,
5718.681,0.1335897,
5716.752,0.1312328,
5714.824,0.1290476,
5712.895,0.1269507,
5710.966,0.1247669,
5709.037,0.1224567,
5707.109,0.1201944,
5705.180,0.1181451,
5703.251,0.1161345,
5701.323,0.1138886,
5699.394,0.1115331,
5697.465,0.1093033,
5695.536,0.107203,
5693.608,0.1052457,
5691.679,0.1033962,
5689.750,0.1015158,
5687.821,0.09958819,
5685.893,0.0976806,
5683.964,0.09584168,
5682.035,0.09407902,
5680.107,0.09232315,
5678.178,0.09049863,
5676.249,0.08867479,
5674.320,0.08699995,
5672.392,0.08546358,
5670.463,0.08399939,
5668.534,0.0825977,
5666.605,0.08111814,
5664.677,0.07948722,
5662.748,0.07790847,
5660.819,0.0765296,
5658.891,0.07529467,
5656.962,0.07409559,
5655.033,0.0728534,
5653.104,0.07157225,
5651.176,0.07027514,
5649.247,0.06898249,
5647.318,0.0677933,
5645.389,0.06672506,
5643.461,0.06570106,
5641.532,0.06472024,
5639.603,0.06372991,
5637.675,0.06269339,
5635.746,0.06171002,
5633.817,0.06082197,
5631.888,0.06000638,
5629.960,0.05927391,
5628.031,0.05859954,
5626.102,0.05784818,
5624.173,0.05697838,
5622.245,0.05611334,
5620.316,0.05531543,
5618.387,0.05466417,
5616.459,0.05417057,
5614.530,0.05364682,
5612.601,0.05305329,
5610.672,0.05245243,
5608.744,0.05182953,
5606.815,0.05128045,
5604.886,0.05083348,
5602.957,0.05036777,
5601.029,0.04990445,
5599.100,0.04948162,
5597.171,0.04905659,
5595.242,0.04862807,
5593.314,0.04819102,
5591.385,0.04780343,
5589.456,0.04753096,
5587.528,0.0472868,
5585.599,0.0469461,
5583.670,0.04654468,
5581.741,0.0462711,
5579.813,0.04615774,
5577.884,0.04600803,
5575.955,0.04577286,
5574.026,0.04556933,
5572.098,0.04532903,
5570.169,0.04496507,
5568.240,0.0446501,
5566.312,0.04453167,
5564.383,0.04455934,
5562.454,0.04462664,
5560.525,0.04465258,
5558.597,0.04457074,
5556.668,0.04433671,
5554.739,0.04403148,
5552.810,0.04382272,
5550.882,0.04380777,
5548.953,0.04394669,
5547.024,0.04412302,
5545.096,0.04425557,
5543.167,0.04430871,
5541.238,0.04429077,
5539.309,0.04428449,
5537.381,0.04436627,
5535.452,0.04445751,
5533.523,0.04445539,
5531.594,0.04446852,
5529.666,0.04463127,
5527.737,0.04486221,
5525.808,0.04501384,
5523.880,0.04508215,
5521.951,0.04519527,
5520.022,0.04543158,
5518.093,0.04570359,
5516.165,0.04593869,
5514.236,0.04619339,
5512.307,0.04647796,
5510.378,0.04674149,
5508.450,0.0469813,
5506.521,0.04725524,
5504.592,0.04761739,
5502.663,0.04801652,
5500.735,0.04839393,
5498.806,0.0487679,
5496.877,0.04914522,
5494.949,0.04956292,
5493.020,0.05007639,
5491.091,0.05059758,
5489.162,0.05103223,
5487.234,0.05147565,
5485.305,0.05202238,
5483.376,0.05264944,
5481.447,0.05329601,
5479.519,0.05390109,
5477.590,0.05445873,
5475.661,0.05502463,
5473.733,0.05569946,
5471.804,0.05653362,
5469.875,0.0573824,
5467.946,0.0580939,
5466.018,0.05878694,
5464.089,0.05962936,
5462.160,0.06058081,
5460.231,0.06157628,
5458.303,0.06257522,
5456.374,0.06353825,
5454.445,0.06454285,
5452.517,0.06564287,
5450.588,0.06680487,
5448.659,0.06796696,
5446.730,0.06907205,
5444.802,0.07023785,
5442.873,0.07156844,
5440.944,0.072945,
5439.015,0.07426607,
5437.087,0.07557013,
5435.158,0.07700562,
5433.229,0.07861798,
5431.301,0.08022702,
5429.372,0.08183525,
5427.443,0.08364043,
5425.514,0.0856007,
5423.586,0.08756416,
5421.657,0.08953104,
5419.728,0.09154941,
5417.799,0.09360184,
5415.871,0.09563814,
5413.942,0.09771962,
5412.013,0.09994016,
5410.085,0.102271,
5408.156,0.104703,
5406.227,0.1072177,
5404.298,0.1097549,
5402.370,0.1123775,
5400.441,0.1151403,
5398.512,0.1179638,
5396.583,0.1207312,
5394.655,0.123422,
5392.726,0.1262016,
5390.797,0.129198,
5388.868,0.1322518,
5386.940,0.1352193,
5385.011,0.138237,
5383.082,0.1413757,
5381.154,0.1444695,
5379.225,0.1474021,
5377.296,0.1503054,
5375.367,0.1533758,
5373.439,0.1565475,
5371.510,0.1596032,
5369.581,0.1625219,
5367.652,0.1654501,
5365.724,0.1683711,
5363.795,0.1710961,
5361.866,0.1736044,
5359.938,0.1760322,
5358.009,0.1783417,
5356.080,0.1803683,
5354.151,0.1822348,
5352.223,0.1841706,
5350.294,0.1860459,
5348.365,0.1876214,
5346.436,0.1888876,
5344.508,0.1900639,
5342.579,0.1912158,
5340.650,0.1920053,
5338.722,0.1924348,
5336.793,0.1929598,
5334.864,0.193504,
5332.935,0.1936257,
5331.007,0.193284,
5329.078,0.1927102,
5327.149,0.192139,
5325.220,0.1916152,
5323.292,0.1909387,
5321.363,0.1899656,
5319.434,0.1886804,
5317.506,0.1871777,
5315.577,0.1856049,
5313.648,0.1839232,
5311.719,0.1820254,
5309.791,0.1799372,
5307.862,0.1777302,
5305.933,0.1754921,
5304.004,0.1732729,
5302.076,0.1709977,
5300.147,0.1686044,
5298.218,0.1661126,
5296.290,0.163545,
5294.361,0.160894,
5292.432,0.1581307,
5290.503,0.1553494,
5288.575,0.1526529,
5286.646,0.1499406,
5284.717,0.1471726,
5282.788,0.1444641,
5280.860,0.1418619,
5278.931,0.139275,
5277.002,0.1365657,
5275.073,0.1337611,
5273.145,0.1309937,
5271.216,0.1282721,
5269.287,0.1255615,
5267.359,0.1228514,
5265.430,0.1201381,
5263.501,0.1175212,
5261.572,0.1150946,
5259.644,0.1127876,
5257.715,0.1104513,
5255.786,0.1080285,
5253.857,0.1056384,
5251.929,0.1033408,
5250.000,0.1010405,
5248.071,0.09876083,
5246.143,0.09658335,
5244.214,0.09450248,
5242.285,0.09250905,
5240.356,0.0905757,
5238.428,0.08868468,
5236.499,0.08681656,
5234.570,0.0848992,
5232.641,0.08295164,
5230.713,0.08104569,
5228.784,0.0791923,
5226.855,0.07748864,
5224.927,0.07600373,
5222.998,0.07458685,
5221.069,0.07311568,
5219.140,0.07161462,
5217.212,0.07013945,
5215.283,0.06875093,
5213.354,0.06742799,
5211.425,0.06608439,
5209.497,0.06467947,
5207.568,0.06325897,
5205.639,0.06199015,
5203.711,0.06096725,
5201.782,0.06004936,
5199.853,0.05905581,
5197.924,0.05795853,
5195.996,0.05689497,
5194.067,0.05595923,
5192.138,0.05507854,
5190.209,0.0542144,
5188.281,0.05338209,
5186.352,0.05254456,
5184.423,0.05169019,
5182.495,0.05084037,
5180.566,0.05001663,
5178.637,0.04926712,
5176.708,0.04859903,
5174.780,0.04795502,
5172.851,0.04733517,
5170.922,0.04678398,
5168.993,0.0462461,
5167.065,0.04563916,
5165.136,0.0450244,
5163.207,0.0444924,
5161.278,0.04400438,
5159.350,0.04350032,
5157.421,0.04300586,
5155.492,0.04256501,
5153.564,0.04217176,
5151.635,0.04183591,
5149.706,0.04157233,
5147.777,0.0412766,
5145.849,0.0408693,
5143.920,0.0404436,
5141.991,0.0400924,
5140.062,0.03980209,
5138.134,0.0395336,
5136.205,0.03928756,
5134.276,0.03907903,
5132.348,0.03888649,
5130.419,0.03869008,
5128.490,0.03850804,
5126.561,0.03832592,
5124.633,0.03811238,
5122.704,0.03791207,
5120.775,0.03777122,
5118.846,0.03766678,
5116.918,0.0375653,
5114.989,0.03746612,
5113.060,0.03740215,
5111.132,0.03737489,
5109.203,0.03733338,
5107.274,0.03726038,
5105.345,0.03718707,
5103.417,0.03710694,
5101.488,0.03701755,
5099.559,0.0369713,
5097.630,0.03695796,
5095.702,0.03695858,
5093.773,0.03701315,
5091.844,0.03709838,
5089.916,0.03716541,
5087.987,0.03720664,
5086.058,0.03722795,
5084.129,0.03726675,
5082.201,0.03734744,
5080.272,0.03745303,
5078.343,0.03759584,
5076.414,0.03778799,
5074.486,0.03798727,
5072.557,0.03815785,
5070.628,0.0383091,
5068.700,0.03849424,
5066.771,0.03874583,
5064.842,0.03900601,
5062.913,0.03922603,
5060.985,0.03945088,
5059.056,0.03973128,
5057.127,0.04004914,
5055.198,0.0403652,
5053.270,0.04066405,
5051.341,0.04098523,
5049.412,0.04139496,
5047.483,0.04183386,
5045.555,0.04220639,
5043.626,0.04257794,
5041.697,0.04301547,
5039.769,0.04347395,
5037.840,0.04395792,
5035.911,0.04449174,
5033.982,0.04499846,
5032.054,0.0454556,
5030.125,0.04596965,
5028.196,0.04659484,
5026.267,0.04726695,
5024.339,0.04792367,
5022.410,0.04858267,
5020.481,0.04925523,
5018.553,0.04992369,
5016.624,0.050647,
5014.695,0.0514823,
5012.766,0.05236282,
5010.838,0.05323182,
5008.909,0.05411979,
5006.980,0.05504024,
5005.051,0.05601683,
5003.123,0.05706255,
5001.194,0.05812859,
4999.265,0.05923007,
4997.337,0.06039008,
4995.408,0.0615802,
4993.479,0.06283361,
4991.550,0.06417011,
4989.622,0.06554948,
4987.693,0.06695385,
4985.764,0.06838411,
4983.835,0.06987263,
4981.907,0.07145984,
4979.978,0.07312445,
4978.049,0.07483727,
4976.121,0.07661845,
4974.192,0.07850298,
4972.263,0.0804868,
4970.334,0.08253081,
4968.406,0.0846409,
4966.477,0.0868388,
4964.548,0.08910269,
4962.619,0.0914298,
4960.691,0.0938409,
4958.762,0.09634802,
4956.833,0.09894104,
4954.904,0.101621,
4952.976,0.1044255,
4951.047,0.1073243,
4949.118,0.1102804,
4947.190,0.1133269,
4945.261,0.1164284,
4943.332,0.1195577,
4941.403,0.1227832,
4939.475,0.126114,
4937.546,0.1294886,
4935.617,0.1328709,
4933.688,0.1362707,
4931.760,0.1397229,
4929.831,0.1432356,
4927.902,0.1467704,
4925.974,0.1502488,
4924.045,0.1536276,
4922.116,0.1569561,
4920.187,0.1602572,
4918.259,0.1634934,
4916.330,0.1666522,
4914.401,0.1697359,
4912.472,0.1727207,
4910.544,0.1755265,
4908.615,0.1780902,
4906.686,0.1804252,
4904.758,0.1825652,
4902.829,0.1845757,
4900.900,0.1864494,
4898.971,0.1880729,
4897.043,0.1894209,
4895.114,0.1905325,
4893.185,0.1914061,
4891.256,0.1920136,
4889.328,0.1923223,
4887.399,0.192351,
4885.470,0.1921521,
4883.542,0.1917514,
4881.613,0.1911547,
4879.684,0.1903506,
4877.755,0.1893103,
4875.827,0.1880177,
4873.898,0.1864949,
4871.969,0.1847906,
4870.040,0.1829211,
4868.112,0.1808726,
4866.183,0.1786846,
4864.254,0.1764008,
4862.326,0.1739768,
4860.397,0.1713608,
4858.468,0.168587,
4856.539,0.1657517,
4854.611,0.1629275,
4852.682,0.160065,
4850.753,0.1570766,
4848.824,0.1540345,
4846.896,0.1510323,
4844.967,0.1480014,
4843.038,0.1448904,
4841.109,0.1417432,
4839.181,0.138613,
4837.252,0.1355263,
4835.323,0.1324515,
4833.395,0.1293701,
4831.466,0.1263044,
4829.537,0.1232642,
4827.608,0.1202747,
4825.680,0.1173663,
4823.751,0.1145133,
4821.822,0.1116837,
4819.893,0.1089044,
4817.965,0.1061868,
4816.036,0.1035125,
4814.107,0.1009018,
4812.179,0.0983678,
4810.250,0.09589254,
4808.321,0.09343774,
4806.392,0.09098049,
4804.464,0.08857818,
4802.535,0.08628435,
4800.606,0.08407579,
4798.677,0.08192745,
4796.749,0.07982886,
4794.820,0.07775234,
4792.891,0.07571755,
4790.963,0.07379398,
4789.034,0.07196875,
4787.105,0.07019047,
4785.176,0.0684801,
4783.248,0.06683122,
4781.319,0.06519972,
4779.390,0.06362672,
4777.461,0.06217351,
4775.533,0.06078951,
4773.604,0.05938784,
4771.675,0.05797974,
4769.747,0.05662853,
4767.818,0.0553464,
4765.889,0.05410554,
4763.960,0.05292597,
4762.032,0.05185399,
4760.103,0.05083989,
4758.174,0.04980092,
4756.245,0.04876844,
4754.317,0.04782717,
4752.388,0.04695028,
4750.459,0.04603771,
4748.531,0.04511545,
4746.602,0.04428234,
4744.673,0.04353647,
4742.744,0.0428119,
4740.816,0.0420781,
4738.887,0.0413806,
4736.958,0.04074898,
4735.029,0.04013505,
4733.101,0.03953169,
4731.172,0.03895468,
4729.243,0.03837599,
4727.314,0.03780982,
4725.386,0.03730269,
4723.457,0.03684124,
4721.528,0.03635265,
4719.600,0.03582578,
4717.671,0.03536461,
4715.742,0.03501132,
4713.813,0.03468197,
4711.885,0.03431635,
4709.956,0.03393574,
4708.027,0.0335893,
4706.098,0.03328476,
4704.170,0.0329715,
4702.241,0.03263458,
4700.312,0.03234657,
4698.384,0.0321121,
4696.455,0.03184336,
4694.526,0.03155463,
4692.597,0.03130097,
4690.669,0.03106978,
4688.740,0.03085942,
4686.811,0.03067647,
4684.882,0.0305038,
4682.954,0.0303202,
4681.025,0.03013154,
4679.096,0.0299677,
4677.168,0.02984725,
4675.239,0.0297527,
4673.310,0.02965361,
4671.381,0.02956449,
4669.453,0.02950056,
4667.524,0.02943954,
4665.595,0.02935709,
4663.666,0.0292531,
4661.738,0.02918109,
4659.809,0.02918659,
4657.880,0.02921811,
4655.952,0.02921005,
4654.023,0.02919646,
4652.094,0.02921123,
4650.165,0.02923648,
4648.237,0.02927642,
4646.308,0.02931091,
4644.379,0.02933852,
4642.450,0.02940129,
4640.522,0.0294778,
4638.593,0.02954509,
4636.664,0.0296235,
4634.736,0.02971618,
4632.807,0.02981992,
4630.878,0.02992783,
4628.949,0.03003623,
4627.021,0.03016573,
4625.092,0.03032732,
4623.163,0.03051195,
4621.234,0.03070571,
4619.306,0.03090002,
4617.377,0.03111542,
4615.448,0.03135774,
4613.519,0.03157768,
4611.591,0.03175367,
4609.662,0.0319656,
4607.733,0.03229119,
4605.805,0.03267147,
4603.876,0.03300254,
4601.947,0.03327171,
4600.018,0.03353561,
4598.090,0.03385228,
4596.161,0.03421265,
4594.232,0.0345814,
4592.303,0.03499305,
4590.375,0.03544396,
4588.446,0.03586324,
4586.517,0.03627345,
4584.589,0.03672908,
4582.660,0.03721239,
4580.731,0.03770392,
4578.802,0.03822535,
4576.874,0.03880407,
4574.945,0.03941973,
4573.016,0.04004674,
4571.087,0.04069918,
4569.159,0.04139988,
4567.230,0.0421439,
4565.301,0.04289421,
4563.373,0.04364987,
4561.444,0.04443019,
4559.515,0.04523913,
4557.586,0.0461046,
4555.658,0.04704561,
4553.729,0.04804777,
4551.800,0.04909,
4549.871,0.05014783,
4547.943,0.05121733,
4546.014,0.05234596,
4544.085,0.05354297,
4542.157,0.05476117,
4540.228,0.05605049,
4538.299,0.05749527,
4536.370,0.05905275,
4534.442,0.0606264,
4532.513,0.06218185,
4530.584,0.06376293,
4528.655,0.06545467,
4526.727,0.06729339,
4524.798,0.06924144,
4522.869,0.07127923,
4520.940,0.07340277,
4519.012,0.07560293,
4517.083,0.07790486,
4515.154,0.08030502,
4513.226,0.08277439,
4511.297,0.08534431,
4509.368,0.08805142,
4507.439,0.09086663,
4505.511,0.09377358,
4503.582,0.09680573,
4501.653,0.09996703,
4499.724,0.1032511,
4497.796,0.1066547,
4495.867,0.1101354,
4493.938,0.1136835,
4492.010,0.1173318,
4490.081,0.1210752,
4488.152,0.1249091,
4486.223,0.1288368,
4484.295,0.1327998,
4482.366,0.1367427,
4480.437,0.1406935,
4478.508,0.1446963,
4476.580,0.1487123,
4474.651,0.1526403,
4472.722,0.156443,
4470.794,0.1601469,
4468.865,0.1637457,
4466.936,0.1672168,
4465.007,0.1705369,
4463.079,0.1736556,
4461.150,0.1765293,
4459.221,0.1791394,
4457.292,0.1814811,
4455.364,0.1835623,
4453.435,0.1853673,
4451.506,0.1868532,
4449.578,0.1879897,
4447.649,0.1887615,
4445.720,0.1891558,
4443.791,0.1892029,
4441.863,0.188991,
4439.934,0.1885255,
4438.005,0.1877054,
4436.076,0.1864874,
4434.148,0.1849288,
4432.219,0.1831167,
4430.290,0.1810828,
4428.362,0.1788146,
4426.433,0.1763304,
4424.504,0.1736584,
4422.575,0.1708038,
4420.647,0.1677566,
4418.718,0.1645556,
4416.789,0.1612708,
4414.860,0.1578794,
4412.932,0.1543443,
4411.003,0.1507507,
4409.074,0.1471824,
4407.145,0.1435938,
4405.217,0.1399409,
4403.288,0.1362671,
4401.359,0.1326126,
4399.431,0.1290097,
4397.502,0.1254561,
4395.573,0.1218974,
4393.644,0.1183548,
4391.716,0.1148965,
4389.787,0.1115183,
4387.858,0.1082015,
4385.929,0.1049706,
4384.001,0.1018449,
4382.072,0.09881184,
4380.143,0.09585392,
4378.215,0.09298515,
4376.286,0.0902474,
4374.357,0.08764773,
4372.428,0.08514286,
4370.500,0.08269306,
4368.571,0.08029293,
4366.642,0.07796849,
4364.713,0.07572249,
4362.785,0.07352249,
4360.856,0.07139904,
4358.927,0.06940675,
4356.999,0.06750065,
4355.070,0.06562777,
4353.141,0.06380016,
4351.212,0.06199982,
4349.284,0.06021899,
4347.355,0.05851712,
4345.426,0.05691461,
4343.497,0.05539672,
4341.569,0.05395041,
4339.640,0.05252438,
4337.711,0.05112924,
4335.783,0.04981846,
4333.854,0.04855219,
4331.925,0.04729637,
4329.996,0.04608259,
4328.068,0.04493209,
4326.139,0.04382372,
4324.210,0.04271214,
4322.281,0.04161482,
4320.353,0.04059196,
4318.424,0.03964499,
4316.495,0.03874864,
4314.567,0.03790374,
4312.638,0.03710116,
4310.709,0.0363142,
4308.780,0.03555383,
4306.852,0.03484578,
4304.923,0.0341676,
4302.994,0.03348947,
4301.065,0.03280882,
4299.137,0.03212148,
4297.208,0.031468,
4295.279,0.03093341,
4293.350,0.03049865,
4291.422,0.03004692,
4289.493,0.02954264,
4287.564,0.02904747,
4285.636,0.02858923,
4283.707,0.02814764,
4281.778,0.02773949,
4279.849,0.02738752,
4277.921,0.02705241,
4275.992,0.02669196,
4274.063,0.02633559,
4272.134,0.02602938,
4270.206,0.02575381,
4268.277,0.02547812,
4266.348,0.02520366,
4264.420,0.02493153,
4262.491,0.02467073,
4260.562,0.02441311,
4258.633,0.02415464,
4256.705,0.02392815,
4254.776,0.02371284,
4252.847,0.02347739,
4250.918,0.02328778,
4248.990,0.02318872,
4247.061,0.02309545,
4245.132,0.02291904,
4243.204,0.02269773,
4241.275,0.02250695,
4239.346,0.02235662,
4237.417,0.02223366,
4235.489,0.02212698,
4233.560,0.022035,
4231.631,0.02195008,
4229.702,0.02184635,
4227.774,0.02173797,
4225.845,0.0216509,
4223.916,0.02158144,
4221.988,0.02153797,
4220.059,0.02151888,
4218.130,0.02149068,
4216.201,0.02143035,
4214.273,0.02134643,
4212.344,0.02125699,
4210.415,0.02118823,
4208.486,0.02118621,
4206.558,0.02123539,
4204.629,0.02125503,
4202.700,0.02125739,
4200.772,0.02131573,
4198.843,0.02138169,
4196.914,0.02136519,
4194.985,0.02133223,
4193.057,0.02138323,
4191.128,0.02146983,
4189.199,0.02154052,
4187.270,0.02162657,
4185.342,0.02172961,
4183.413,0.02182799,
4181.484,0.02192018,
4179.555,0.02201836,
4177.627,0.02212422,
4175.698,0.02223609,
4173.769,0.02239257,
4171.841,0.02258624,
4169.912,0.02273498,
4167.983,0.02284563,
4166.054,0.02300122,
4164.126,0.0232053,
4162.197,0.02341587,
4160.268,0.02362604,
4158.339,0.02383482,
4156.411,0.02403758,
4154.482,0.02425187,
4152.553,0.02449022,
4150.625,0.02473961,
4148.696,0.02500354,
4146.767,0.02529369,
4144.838,0.02560769,
4142.910,0.02593851,
4140.981,0.02626143,
4139.052,0.02659345,
4137.123,0.02697202,
4135.195,0.02736885,
4133.266,0.02777261,
4131.337,0.02820495,
4129.409,0.0286617,
4127.480,0.0291368,
4125.551,0.02962219,
4123.622,0.03010934,
4121.694,0.03061219,
4119.765,0.0311601,
4117.836,0.03175231,
4115.907,0.03236514,
4113.979,0.03301195,
4112.050,0.0337009,
4110.121,0.0344095,
4108.193,0.03515922,
4106.264,0.03597812,
4104.335,0.03683404,
4102.406,0.03770619,
4100.478,0.03859817,
4098.549,0.03951525,
4096.620,0.04049455,
4094.691,0.04154528,
4092.763,0.04265678,
4090.834,0.0438563,
4088.905,0.04513933,
4086.977,0.04645182,
4085.048,0.0477616,
4083.119,0.04912129,
4081.190,0.05061415,
4079.262,0.05222706,
4077.333,0.05390378,
4075.404,0.05564724,
4073.475,0.05748367,
4071.547,0.05943222,
4069.618,0.06150702,
4067.689,0.06371004,
4065.760,0.0660472,
4063.832,0.06851054,
4061.903,0.07105556,
4059.974,0.07367484,
4058.046,0.07643563,
4056.117,0.07937615,
4054.188,0.08244887,
4052.259,0.08561803,
4050.331,0.08891167,
4048.402,0.09236184,
4046.473,0.09596249,
4044.544,0.0996754,
4042.616,0.1034944,
4040.687,0.1074449,
4038.758,0.1115189,
4036.830,0.115706,
4034.901,0.1199933,
4032.972,0.1243567,
4031.043,0.1287698,
4029.115,0.1331621,
4027.186,0.1374616,
4025.257,0.1416479,
4023.328,0.1457207,
4021.400,0.1496401,
4019.471,0.1533425,
4017.542,0.1568279,
4015.614,0.1601018,
4013.685,0.1631186,
4011.756,0.1658524,
4009.827,0.1683014,
4007.899,0.170444,
4005.970,0.1722282,
4004.041,0.173602,
4002.112,0.1745478,
4000.184,0.1750665,
3998.255,0.175132,
3996.326,0.1747333,
3994.398,0.1739206,
3992.469,0.1727048,
3990.540,0.1710695,
3988.611,0.1690633,
3986.683,0.1667459,
3984.754,0.1641458,
3982.825,0.1612909,
3980.896,0.1582252,
3978.968,0.1549415,
3977.039,0.1513901,
3975.110,0.1476452,
3973.181,0.14388,
3971.253,0.1401711,
3969.324,0.1364702,
3967.395,0.1327096,
3965.467,0.1288305,
3963.538,0.1248295,
3961.609,0.1208426,
3959.680,0.1170018,
3957.752,0.1132753,
3955.823,0.1095937,
3953.894,0.105959,
3951.965,0.1023841,
3950.037,0.09889643,
3948.108,0.09555557,
3946.179,0.09235509,
3944.251,0.08922687,
3942.322,0.08618657,
3940.393,0.08327469,
3938.464,0.08045287,
3936.536,0.07769531,
3934.607,0.07493491,
3932.678,0.07214048,
3930.749,0.06949237,
3928.821,0.06704056,
3926.892,0.06462295,
3924.963,0.06226591,
3923.035,0.06007389,
3921.106,0.0579486,
3919.177,0.05581392,
3917.248,0.05380683,
3915.320,0.05202517,
3913.391,0.05034677,
3911.462,0.0486277,
3909.533,0.04686792,
3907.605,0.04508376,
3905.676,0.04329212,
3903.747,0.0416439,
3901.819,0.04025892,
3899.890,0.03909063,
3897.961,0.03803861,
3896.032,0.0369758,
3894.104,0.0358006,
3892.175,0.03460062,
3890.246,0.03354319,
3888.317,0.03253729,
3886.389,0.03147829,
3884.460,0.03056298,
3882.531,0.02981739,
3880.603,0.02906886,
3878.674,0.0283584,
3876.745,0.02771328,
3874.816,0.02703468,
3872.888,0.0262568,
3870.959,0.02543925,
3869.030,0.02479622,
3867.101,0.02433027,
3865.173,0.02384318,
3863.244,0.02337215,
3861.315,0.02300761,
3859.386,0.02260985,
3857.458,0.0219283,
3855.529,0.02097177,
3853.600,0.02027429,
3851.672,0.02022265,
3849.743,0.0204095,
3847.814,0.02031585,
3845.885,0.01994143,
3843.957,0.0194878,
3842.028,0.01902612,
3840.099,0.01855157,
3838.170,0.01816798,
3836.242,0.01799841,
3834.313,0.0179309,
3832.384,0.01780118,
3830.456,0.01763604,
3828.527,0.01747799,
3826.598,0.01728262,
3824.669,0.01698796,
3822.741,0.01658588,
3820.812,0.01624538,
3818.883,0.01605549,
3816.954,0.0159005,
3815.026,0.01583079,
3813.097,0.01587752,
3811.168,0.01583456,
3809.240,0.01562228,
3807.311,0.01539825,
3805.382,0.01524186,
3803.453,0.01505303,
3801.525,0.01491768,
3799.596,0.01498572,
3797.667,0.01506128,
3795.738,0.01495154,
3793.810,0.01477149,
3791.881,0.01470083,
3789.952,0.01472875,
3788.024,0.01470894,
3786.095,0.01459654,
3784.166,0.01449701,
3782.237,0.01450493,
3780.309,0.0145434,
3778.380,0.01450494,
3776.451,0.01441915,
3774.522,0.01433637,
3772.594,0.01426495,
3770.665,0.01421795,
3768.736,0.01419329,
3766.808,0.01416313,
3764.879,0.01415183,
3762.950,0.01416788,
3761.021,0.01416171,
3759.093,0.01417458,
3757.164,0.0142072,
3755.235,0.01412739,
3753.306,0.01393287,
3751.378,0.01381171,
3749.449,0.01388365,
3747.520,0.01399371,
3745.591,0.01400866,
3743.663,0.01410794,
3741.734,0.01433995,
3739.805,0.01446461,
3737.877,0.01444772,
3735.948,0.01447274,
3734.019,0.0146109,
3732.090,0.01481316,
3730.162,0.01501797,
3728.233,0.01516782,
3726.304,0.01526871,
3724.375,0.01539533,
3722.447,0.01555719,
3720.518,0.01572224,
3718.589,0.01589903,
3716.661,0.01606403,
3714.732,0.01614883,
3712.803,0.01619023,
3710.874,0.01634744,
3708.946,0.01664836,
3707.017,0.0169557,
3705.088,0.01718681,
3703.159,0.01739568,
3701.231,0.01767445,
3699.302,0.0179914,
3697.373,0.01826643,
3695.445,0.01851862,
3693.516,0.01875611,
3691.587,0.01890998,
3689.658,0.0190554,
3687.730,0.01942428,
3685.801,0.0199938,
3683.872,0.02051074,
3681.943,0.0209043,
3680.015,0.02122222,
3678.086,0.02145715,
3676.157,0.02174626,
3674.229,0.02225302,
3672.300,0.02281305,
3670.371,0.02333514,
3668.442,0.02401134,
3666.514,0.02482379,
3664.585,0.02559182,
3662.656,0.02626734,
3660.727,0.0268831,
3658.799,0.02746337,
3656.870,0.02808821,
3654.941,0.02883545,
3653.013,0.0295201,
3651.084,0.03003751,
3649.155,0.03073396,
3647.226,0.03184384,
3645.298,0.03312388,
3643.369,0.03430057,
3641.440,0.03537866,
3639.511,0.03646426,
3637.583,0.03758379,
3635.654,0.03872279,
3633.725,0.03985026,
3631.796,0.04084175,
3629.868,0.04181943,
3627.939,0.04326181,
3626.010,0.04517196,
3624.082,0.04704704,
3622.153,0.04867785,
3620.224,0.05027522,
3618.295,0.05215296,
3616.367,0.05427662,
3614.438,0.05641081,
3612.509,0.05856257,
3610.580,0.06081366,
3608.652,0.06331998,
3606.723,0.06618086,
3604.794,0.06913803,
3602.866,0.07200371,
3600.937,0.07491512,
3599.008,0.07795834,
3597.079,0.08105455,
3595.151,0.08422641,
3593.222,0.08754167,
3591.293,0.09078726,
3589.364,0.09383065,
3587.436,0.09706102,
3585.507,0.1007073,
3583.578,0.104378,
3581.650,0.1077266,
3579.721,0.1107691,
3577.792,0.1135962,
3575.863,0.1162454,
3573.935,0.118669,
3572.006,0.1206793,
3570.077,0.1220714,
3568.148,0.123053,
3566.220,0.124114,
3564.291,0.1252026,
3562.362,0.1258328,
3560.434,0.1258724,
3558.505,0.1254996,
3556.576,0.1247591,
3554.647,0.1235678,
3552.719,0.1219833,
3550.790,0.1201495,
3548.861,0.1180469,
3546.932,0.1156917,
3545.004,0.1132601,
3543.075,0.1107803,
3541.146,0.108136,
3539.217,0.1052967,
3537.289,0.1023359,
3535.360,0.09934162,
3533.431,0.09631851,
3531.503,0.09321776,
3529.574,0.0900703,
3527.645,0.08697358,
3525.716,0.083976,
3523.788,0.08107308,
3521.859,0.07824004,
3519.930,0.07543548,
3518.001,0.07265899,
3516.073,0.06994478,
3514.144,0.06729738,
3512.215,0.06471401,
3510.287,0.06221698,
3508.358,0.05982383,
3506.429,0.05750667,
3504.500,0.05524671,
3502.572,0.05310592,
3500.643,0.05110703,
3498.714,0.04915468,
3496.785,0.04720804,
3494.857,0.04533441,
3492.928,0.04355141,
3490.999,0.04181889,
3489.071,0.04015262,
3487.142,0.03858925,
3485.213,0.03709763,
3483.284,0.03564275,
3481.356,0.03425396,
3479.427,0.03295041,
3477.498,0.0317205,
3475.569,0.03057032,
3473.641,0.02947898,
3471.712,0.02841272,
3469.783,0.02738043,
3467.855,0.02638417,
3465.926,0.02542808,
3463.997,0.02453644,
3462.068,0.02371535,
3460.140,0.02296103,
3458.211,0.02224668,
3456.282,0.02154586,
3454.353,0.02087162,
3452.425,0.0202316,
3450.496,0.01962131,
3448.567,0.01904631,
3446.639,0.01850877,
3444.710,0.01799723,
3442.781,0.01750038,
3440.852,0.01702438,
3438.924,0.01657843,
3436.995,0.0161592,
3435.066,0.01575427,
3433.137,0.01536243,
3431.209,0.01499367,
3429.280,0.01463961,
3427.351,0.01429644,
3425.422,0.01397578,
3423.494,0.0136686,
3421.565,0.01337203,
3419.636,0.01310787,
3417.708,0.01287694,
3415.779,0.01265134,
3413.850,0.0124139,
3411.921,0.01218973,
3409.993,0.01201629,
3408.064,0.01188243,
3406.135,0.01174306,
3404.206,0.01158656,
3402.278,0.01144543,
3400.349,0.01133845,
3398.420,0.01124983,
3396.492,0.01115803,
3394.563,0.01103733,
3392.634,0.01088369,
3390.705,0.01074226,
3388.777,0.01064479,
3386.848,0.01056193,
3384.919,0.01045541,
3382.990,0.01032903,
3381.062,0.01020801,
3379.133,0.01009931,
3377.204,0.009999993,
3375.276,0.009927705,
3373.347,0.00988845,
3371.418,0.00983974,
3369.489,0.009766765,
3367.561,0.009711729,
3365.632,0.00966834,
3363.703,0.009593634,
3361.774,0.009510042,
3359.846,0.009457496,
3357.917,0.009411665,
3355.988,0.009332648,
3354.060,0.009246529,
3352.131,0.009201758,
3350.202,0.009173923,
3348.273,0.009129816,
3346.345,0.009098203,
3344.416,0.009079339,
3342.487,0.009032633,
3340.558,0.008978114,
3338.630,0.008961667,
3336.701,0.008958506,
3334.772,0.008930782,
3332.844,0.00890295,
3330.915,0.008906472,
3328.986,0.00892098,
3327.057,0.008909907,
3325.129,0.008886501,
3323.200,0.0088803,
3321.271,0.008871909,
3319.342,0.008845103,
3317.414,0.008827513,
3315.485,0.00884235,
3313.556,0.008885296,
3311.627,0.008928262,
3309.699,0.008947494,
3307.770,0.008964466,
3305.841,0.009004992,
3303.913,0.009047586,
3301.984,0.00906413,
3300.055,0.009077501,
3298.126,0.009127314,
3296.198,0.009208548,
3294.269,0.009289174,
3292.340,0.009340209,
3290.411,0.009374123,
3288.483,0.00943601,
3286.554,0.009516744,
3284.625,0.009594149,
3282.697,0.009675166,
3280.768,0.009746739,
3278.839,0.009809501,
3276.910,0.009885749,
3274.982,0.009984045,
3273.053,0.01011207,
3271.124,0.01026223,
3269.195,0.01040925,
3267.267,0.0105493,
3265.338,0.01068034,
3263.409,0.01079406,
3261.481,0.01091692,
3259.552,0.01106477,
3257.623,0.01121866,
3255.694,0.01137956,
3253.766,0.0115561,
3251.837,0.01174392,
3249.908,0.01194304,
3247.979,0.01215723,
3246.051,0.01238241,
3244.122,0.01261392,
3242.193,0.01286002,
3240.265,0.0131299,
3238.336,0.01342098,
3236.407,0.01372506,
3234.478,0.01403304,
3232.550,0.01433488,
3230.621,0.01463627,
3228.692,0.01495832,
3226.763,0.01531976,
3224.835,0.01573132,
3222.906,0.01617532,
3220.977,0.01662189,
3219.049,0.01707287,
3217.120,0.01755706,
3215.191,0.01808855,
3213.262,0.01865004,
3211.334,0.01923769,
3209.405,0.01986695,
3207.476,0.02054316,
3205.547,0.02127532,
3203.619,0.02206029,
3201.690,0.02287255,
3199.761,0.0237149,
3197.832,0.02462233,
3195.904,0.0256054,
3193.975,0.02664894,
3192.046,0.02776095,
3190.118,0.02897535,
3188.189,0.03029332,
3186.260,0.03167639,
3184.331,0.03314007,
3182.403,0.03474805,
3180.474,0.03650286,
3178.545,0.03836634,
3176.616,0.04034411,
3174.688,0.04247081,
3172.759,0.04476361,
3170.830,0.04722812,
3168.902,0.04986594,
3166.973,0.05267661,
3165.044,0.05567384,
3163.115,0.05885836,
3161.187,0.06220701,
3159.258,0.06571978,
3157.329,0.06939335,
3155.400,0.0731768,
3153.472,0.07704569,
3151.543,0.08100625,
3149.614,0.08498885,
3147.686,0.08890364,
3145.757,0.09272872,
3143.828,0.09642971,
3141.899,0.09991734,
3139.971,0.1031017,
3138.042,0.1059084,
3136.113,0.108277,
3134.184,0.1101878,
3132.256,0.1116395,
3130.327,0.1125859,
3128.398,0.1129721,
3126.470,0.1128008,
3124.541,0.1120994,
3122.612,0.1109037,
3120.683,0.1092664,
3118.755,0.1072154,
3116.826,0.104753,
3114.897,0.1019275,
3112.968,0.09883589,
3111.040,0.09554753,
3109.111,0.09209087,
3107.182,0.0885094,
3105.253,0.08487464,
3103.325,0.08123235,
3101.396,0.07757545,
3099.467,0.07390308,
3097.539,0.07026782,
3095.610,0.06671328,
3093.681,0.06323037,
3091.752,0.05983458,
3089.824,0.0565675,
3087.895,0.05342452,
3085.966,0.05040718,
3084.037,0.0475431,
3082.109,0.04483238,
3080.180,0.04227198,
3078.251,0.03985232,
3076.323,0.03754378,
3074.394,0.03534915,
3072.465,0.03329122,
3070.536,0.03136819,
3068.608,0.0295832,
3066.679,0.02794606,
3064.750,0.02642815,
3062.821,0.0249995,
3060.893,0.02367653,
3058.964,0.02245842,
3057.035,0.02131098,
3055.107,0.02024288,
3053.178,0.01927192,
3051.249,0.0183706,
3049.320,0.01751272,
3047.392,0.01669226,
3045.463,0.01591861,
3043.534,0.01520395,
3041.605,0.01453508,
3039.677,0.01389808,
3037.748,0.01330239,
3035.819,0.01275585,
3033.891,0.01224742,
3031.962,0.01176329,
3030.033,0.01130362,
3028.104,0.01087861,
3026.176,0.01048516,
3024.247,0.01009988,
3022.318,0.00972061,
3020.389,0.009376908,
3018.461,0.009081317,
3016.532,0.008815543,
3014.603,0.008557121,
3012.675,0.008288234,
3010.746,0.008010712,
3008.817,0.007756141,
3006.888,0.007540679,
3004.960,0.007336789,
3003.031,0.00712205,
3001.102,0.006908915,
2999.173,0.006717864,
2997.245,0.006551542,
2995.316,0.006393572,
2993.387,0.0062341,
2991.458,0.006080873,
2989.530,0.005938054,
2987.601,0.00581339,
2985.672,0.005702178,
2983.744,0.005564153,
2981.815,0.005385582,
2979.886,0.005204301,
2977.957,0.005056731,
2976.029,0.004930727,
2974.100,0.004768497,
2972.171,0.004553909,
2970.242,0.004321781,
2968.314,0.004066295,
2966.385,0.003763365,
2964.456,0.003426437,
2962.528,0.003092121,
2960.599,0.002799828,
2958.670,0.002563773,
2956.741,0.002378658,
2954.813,0.002233627,
2952.884,0.002097238,
2950.955,0.001944768,
2949.026,0.001777384,
2947.098,0.001615354,
2945.169,0.001477419,
2943.240,0.001354351,
2941.312,0.001256516,
2939.383,0.001222328,
2937.454,0.001236282,
2935.525,0.001274841,
2933.597,0.00137082,
2931.668,0.001536582,
2929.739,0.001770744,
2927.810,0.002094326,
2925.882,0.002474049,
2923.953,0.002860172,
2922.024,0.003254649,
2920.096,0.00365581,
2918.167,0.00403236,
2916.238,0.004329204,
2914.309,0.004516577,
2912.381,0.004630269,
2910.452,0.004701996,
2908.523,0.004727918,
2906.594,0.004719593,
2904.666,0.004706552,
2902.737,0.004697255,
2900.808,0.004680217,
2898.880,0.004646597,
2896.951,0.004600215,
2895.022,0.004557477,
2893.093,0.004519952,
2891.165,0.004473221,
2889.236,0.004422675,
2887.307,0.004384501,
2885.378,0.004343183,
2883.450,0.00426123,
2881.521,0.004133454,
2879.592,0.003992312,
2877.663,0.003857103,
2875.735,0.003714107,
2873.806,0.003553534,
2871.877,0.003373895,
2869.949,0.003159902,
2868.020,0.002929132,
2866.091,0.002741264,
2864.162,0.002647252,
2862.234,0.002674868,
2860.305,0.002824023,
2858.376,0.00307688,
2856.447,0.003398887,
2854.519,0.003740257,
2852.590,0.004060275,
2850.661,0.004310956,
2848.733,0.004453002,
2846.804,0.004515668,
2844.875,0.004553442,
2842.946,0.004577477,
2841.018,0.004581097,
2839.089,0.004568627,
2837.160,0.004551496,
2835.231,0.004539416,
2833.303,0.004528325,
2831.374,0.004507256,
2829.445,0.004474628,
2827.517,0.004455056,
2825.588,0.004475817,
2823.659,0.004517109,
2821.730,0.004543785,
2819.802,0.004566289,
2817.873,0.004608226,
2815.944,0.004648446,
2814.015,0.004666217,
2812.087,0.004687701,
2810.158,0.004731261,
2808.229,0.004786616,
2806.301,0.004841721,
2804.372,0.004889762,
2802.443,0.004936145,
2800.514,0.004985298,
2798.586,0.005032585,
2796.657,0.005076769,
2794.728,0.005129623,
2792.799,0.005207723,
2790.871,0.005285789,
2788.942,0.005334028,
2787.013,0.00539256,
2785.085,0.005493069,
2783.156,0.005604836,
2781.227,0.00570248,
2779.298,0.005796029,
2777.370,0.005900702,
2775.441,0.006009927,
2773.512,0.006117219,
2771.583,0.006229136,
2769.655,0.006350802,
2767.726,0.006488703,
2765.797,0.006642868,
2763.868,0.006800333,
2761.940,0.00694521,
2760.011,0.007084234,
2758.082,0.007250858,
2756.154,0.007461103,
2754.225,0.007695417,
2752.296,0.007922632,
2750.367,0.008130448,
2748.439,0.008343632,
2746.510,0.008594693,
2744.581,0.008873926,
2742.652,0.009159728,
2740.724,0.009472629,
2738.795,0.009826325,
2736.866,0.01018909,
2734.938,0.010541,
2733.009,0.01090682,
2731.080,0.0113239,
2729.151,0.01179624,
2727.223,0.01229008,
2725.294,0.01280437,
2723.365,0.01338607,
2721.436,0.01404151,
2719.508,0.01473385,
2717.579,0.01545047,
2715.650,0.01620691,
2713.722,0.01702772,
2711.793,0.01792524,
2709.864,0.01890145,
2707.935,0.01997544,
2706.007,0.02116058,
2704.078,0.02244189,
2702.149,0.02382006,
2700.220,0.02533464,
2698.292,0.02702403,
2696.363,0.02888753,
2694.434,0.03090703,
2692.506,0.03309244,
2690.577,0.03546739,
2688.648,0.0380227,
2686.719,0.04068783,
2684.791,0.04332192,
2682.862,0.04575946,
2680.933,0.04790043,
2679.004,0.04976925,
2677.076,0.05151999,
2675.147,0.05336324,
2673.218,0.05539592,
2671.290,0.05757964,
2669.361,0.06000973,
2667.432,0.06302273,
2665.503,0.06681982,
2663.575,0.07110416,
2661.646,0.07524878,
2659.717,0.07871119,
2657.788,0.08122693,
2655.860,0.08279962,
2653.931,0.08361481,
2652.002,0.08387246,
2650.073,0.08369747,
2648.145,0.08320088,
2646.216,0.08246505,
2644.287,0.08146767,
2642.359,0.08012713,
2640.430,0.07837097,
2638.501,0.07614641,
2636.572,0.07344718,
2634.644,0.07034303,
2632.715,0.06696581,
2630.786,0.0634528,
2628.857,0.05988782,
2626.929,0.0563276,
2625.000,0.05284528,
2623.071,0.04949694,
2621.143,0.0463068,
2619.214,0.04330355,
2617.285,0.04052494,
2615.356,0.03797187,
2613.428,0.03561318,
2611.499,0.03344589,
2609.570,0.03147107,
2607.641,0.02964558,
2605.713,0.02792225,
2603.784,0.02629107,
2601.855,0.02474058,
2599.927,0.02324019,
2597.998,0.02179608,
2596.069,0.02044016,
2594.140,0.01918066,
2592.212,0.01802046,
2590.283,0.01695778,
2588.354,0.01598024,
2586.425,0.01508392,
2584.497,0.01424063,
2582.568,0.01341499,
2580.639,0.01265829,
2578.711,0.01205017,
2576.782,0.01155041,
2574.853,0.01105736,
2572.924,0.01056215,
2570.996,0.01010225,
2569.067,0.009665826,
2567.138,0.009238682,
2565.209,0.008832691,
2563.281,0.008464142,
2561.352,0.008136325,
2559.423,0.007817179,
2557.494,0.007491999,
2555.566,0.007201884,
2553.637,0.006967937,
2551.708,0.006763521,
2549.780,0.006565822,
2547.851,0.006367534,
2545.922,0.006173634,
2543.993,0.005982659,
2542.065,0.005778012,
2540.136,0.005570825,
2538.207,0.00539194,
2536.278,0.005255783,
2534.350,0.00515508,
2532.421,0.005064055,
2530.492,0.004952764,
2528.564,0.004807329,
2526.635,0.004652124,
2524.706,0.004526665,
2522.777,0.004432822,
2520.849,0.004350152,
2518.920,0.004268355,
2516.991,0.004171796,
2515.062,0.004059285,
2513.134,0.003964261,
2511.205,0.003896359,
2509.276,0.003836077,
2507.348,0.003781546,
2505.419,0.003729807,
2503.490,0.003670867,
2501.561,0.003615683,
2499.633,0.003569466,
2497.704,0.003513112,
2495.775,0.003448907,
2493.846,0.003393324,
2491.918,0.003343824,
2489.989,0.003306521,
2488.060,0.003281494,
2486.132,0.003237682,
2484.203,0.003157172,
2482.274,0.003070059,
2480.345,0.003020281,
2478.417,0.003010314,
2476.488,0.003004387,
2474.559,0.00297584,
2472.630,0.00293454,
2470.702,0.002905408,
2468.773,0.002887801,
2466.844,0.002867675,
2464.916,0.002851234,
2462.987,0.002844923,
2461.058,0.002828602,
2459.129,0.002784104,
2457.201,0.002725834,
2455.272,0.002673216,
2453.343,0.002640477,
2451.414,0.002635316,
2449.486,0.002636764,
2447.557,0.00263974,
2445.628,0.002659771,
2443.699,0.002686461,
2441.771,0.002697749,
2439.842,0.002674941,
2437.913,0.002635168,
2435.985,0.002629544,
2434.056,0.00265728,
2432.127,0.002664887,
2430.198,0.002633537,
2428.270,0.002591721,
2426.341,0.002568483,
2424.412,0.002572588,
2422.483,0.002579498,
2420.555,0.002568854,
2418.626,0.002564353,
2416.697,0.002582957,
2414.769,0.00261238,
2412.840,0.002620083,
2410.911,0.00258953,
2408.982,0.00256974,
2407.054,0.002592402,
2405.125,0.0026251,
2403.196,0.002647312,
2401.267,0.002665691,
2399.339,0.002685701,
2397.410,0.002699158,
2395.481,0.002702622,
2393.553,0.00271473,
2391.624,0.002727137,
2389.695,0.002716132,
2387.766,0.002704956,
2385.838,0.002721528,
2383.909,0.002755317,
2381.980,0.0027906,
2380.051,0.002823471,
2378.123,0.002854339,
2376.194,0.002879663,
2374.265,0.002892449,
2372.337,0.00289814,
2370.408,0.002906003,
2368.479,0.002908783,
2366.550,0.002897464,
2364.622,0.002887303,
2362.693,0.002904792,
2360.764,0.002961323,
2358.835,0.003048228,
2356.907,0.003129991,
2354.978,0.003181937,
2353.049,0.003236157,
2351.121,0.003314737,
2349.192,0.003385013,
2347.263,0.003432357,
2345.334,0.003476528,
2343.406,0.003522827,
2341.477,0.003560093,
2339.548,0.003594799,
2337.619,0.003657682,
2335.691,0.003754294,
2333.762,0.003859335,
2331.833,0.003968093,
2329.904,0.004087166,
2327.976,0.004207601,
2326.047,0.004328368,
2324.118,0.004464088,
2322.190,0.004620099,
2320.261,0.004782551,
2318.332,0.004932091,
2316.403,0.005069158,
2314.475,0.005218716,
2312.546,0.005399242,
2310.617,0.005602685,
2308.688,0.005820418,
2306.760,0.006056569,
2304.831,0.006295677,
2302.902,0.006519025,
2300.974,0.006748388,
2299.045,0.00700893,
2297.116,0.007299357,
2295.187,0.007615599,
2293.259,0.007956356,
2291.330,0.008322698,
2289.401,0.008718621,
2287.472,0.009152038,
2285.544,0.009628726,
2283.615,0.01014172,
2281.686,0.01069566,
2279.758,0.01130912,
2277.829,0.01198083,
2275.900,0.01270343,
2273.971,0.01348811,
2272.043,0.01435454,
2270.114,0.01532269,
2268.185,0.01640819,
2266.256,0.01761407,
2264.328,0.01894173,
2262.399,0.02041055,
2260.470,0.02203817,
2258.542,0.02382678,
2256.613,0.02578347,
2254.684,0.02790706,
2252.755,0.03020733,
2250.827,0.03273872,
2248.898,0.03552371,
2246.969,0.03850982,
2245.040,0.04163233,
2243.112,0.04483566,
2241.183,0.04805142,
2239.254,0.05120006,
2237.326,0.05420678,
2235.397,0.05698637,
2233.468,0.05942229,
2231.539,0.06140123,
2229.611,0.06285718,
2227.682,0.0637591,
2225.753,0.06407127,
2223.824,0.06377003,
2221.896,0.06288908,
2219.967,0.06150374,
2218.038,0.05968182,
2216.109,0.05747801,
2214.181,0.05498569,
2212.252,0.05233845,
2210.323,0.04963175,
2208.395,0.04689997,
2206.466,0.04414792,
2204.537,0.04138997,
2202.608,0.03868063,
2200.680,0.03607606,
2198.751,0.03359965,
2196.822,0.03125052,
2194.893,0.02900417,
2192.965,0.02684912,
2191.036,0.02480625,
2189.107,0.02288968,
2187.179,0.02111451,
2185.250,0.01950433,
2183.321,0.01804433,
2181.392,0.01670002,
2179.464,0.01547494,
2177.535,0.014391,
2175.606,0.01344376,
2173.677,0.01260222,
2171.749,0.01183788,
2169.820,0.01113097,
2167.891,0.0104559,
2165.963,0.009807584,
2164.034,0.009203528,
2162.105,0.008646456,
2160.176,0.008136207,
2158.248,0.007671818,
2156.319,0.007236531,
2154.390,0.006825218,
2152.461,0.006450564,
2150.533,0.006117601,
2148.604,0.005813231,
2146.675,0.005522202,
2144.747,0.005252219,
2142.818,0.005012339,
2140.889,0.004791633,
2138.960,0.004586987,
2137.032,0.004401676,
2135.103,0.004235463,
2133.174,0.004087094,
2131.245,0.003943759,
2129.317,0.003803539,
2127.388,0.0036719,
2125.459,0.003532808,
2123.530,0.003389616,
2121.602,0.003279365,
2119.673,0.003201839,
2117.744,0.003116412,
2115.816,0.003011278,
2113.887,0.002901938,
2111.958,0.002804788,
2110.029,0.00273246,
2108.101,0.002671682,
2106.172,0.002603381,
2104.243,0.002537237,
2102.314,0.002477044,
2100.386,0.002405063,
2098.457,0.002328784,
2096.528,0.002264137,
2094.600,0.002204467,
2092.671,0.002153256,
2090.742,0.002112067,
2088.813,0.002064469,
2086.885,0.002008125,
2084.956,0.001962618,
2083.027,0.001944099,
2081.098,0.001930295,
2079.170,0.001890771,
2077.241,0.001839792,
2075.312,0.001810757,
2073.384,0.001797467,
2071.455,0.001766935,
2069.526,0.001727434,
2067.597,0.001701789,
2065.669,0.001678575,
2063.740,0.001654194,
2061.811,0.001635158,
2059.882,0.001609141,
2057.954,0.001574347,
2056.025,0.001545873,
2054.096,0.001527225,
2052.168,0.001512765,
2050.239,0.001500919,
2048.310,0.001496671,
2046.381,0.00149614,
2044.453,0.001477028,
2042.524,0.001438608,
2040.595,0.001407257,
2038.666,0.001393293,
2036.738,0.001392617,
2034.809,0.001392693,
2032.880,0.001373906,
2030.952,0.001342826,
2029.023,0.001325207,
2027.094,0.001323657,
2025.165,0.001321596,
2023.237,0.001309993,
2021.308,0.001292123,
2019.379,0.001278539,
2017.450,0.001282289,
2015.522,0.001295448,
2013.593,0.001294117,
2011.664,0.001279944,
2009.735,0.00126494,
2007.807,0.00125258,
2005.878,0.001252124,
2003.949,0.001258751,
2002.021,0.001260748,
2000.092,0.001269442,
1998.163,0.001290618,
1996.234,0.001302648,
1994.306,0.001298346,
1992.377,0.001293671,
1990.448,0.001289078,
1988.519,0.001283316,
1986.591,0.001281431,
1984.662,0.001279282,
1982.733,0.001270912,
1980.805,0.001259109,
1978.876,0.00125426,
1976.947,0.001256855,
1975.018,0.001261804,
1973.090,0.001272349,
1971.161,0.001281401,
1969.232,0.001279163,
1967.303,0.001277244,
1965.375,0.001286672,
1963.446,0.001307702,
1961.517,0.001335418,
1959.589,0.001360211,
1957.660,0.001378575,
1955.731,0.001393872,
1953.802,0.001403784,
1951.874,0.001410962,
1949.945,0.001429919,
1948.016,0.001461057,
1946.087,0.001483458,
1944.159,0.001493011,
1942.230,0.00150021,
1940.301,0.001499293,
1938.373,0.001494801,
1936.444,0.001507754,
1934.515,0.001536758,
1932.586,0.001563823,
1930.658,0.001588522,
1928.729,0.001628936,
1926.800,0.001671354,
1924.871,0.001684684,
1922.943,0.001694571,
1921.014,0.001734808,
1919.085,0.001783947,
1917.157,0.001823278,
1915.228,0.001860177,
1913.299,0.001896913,
1911.370,0.001936771,
1909.442,0.001993206,
1907.513,0.002062088,
1905.584,0.002119585,
1903.655,0.002169271,
1901.727,0.002229514,
1899.798,0.00229537,
1897.869,0.002360625,
1895.940,0.002429517,
1894.012,0.002508709,
1892.083,0.002591895,
1890.154,0.002671679,
1888.226,0.002772983,
1886.297,0.002901956,
1884.368,0.003024799,
1882.439,0.003140592,
1880.511,0.003274182,
1878.582,0.003416729,
1876.653,0.003550737,
1874.724,0.003691664,
1872.796,0.003860264,
1870.867,0.00405079,
1868.938,0.004246172,
1867.010,0.004453942,
1865.081,0.004700894,
1863.152,0.00500409,
1861.223,0.005367936,
1859.295,0.005775071,
1857.366,0.00621081,
1855.437,0.006701466,
1853.508,0.007278922,
1851.580,0.0079454,
1849.651,0.008694822,
1847.722,0.009525688,
1845.794,0.01045846,
1843.865,0.01156505,
1841.936,0.01288795,
1840.007,0.01439031,
1838.079,0.01605527,
1836.150,0.0179033,
1834.221,0.01989924,
1832.292,0.02195498,
1830.364,0.0240638,
1828.435,0.02622616,
1826.506,0.02827117,
1824.578,0.02998083,
1822.649,0.03113661,
1820.720,0.03147788,
1818.791,0.03089778,
1816.863,0.02950948,
1814.934,0.02750976,
1813.005,0.02515486,
1811.076,0.0228088,
1809.148,0.02084294,
1807.219,0.01944283,
1805.290,0.01852533,
1803.362,0.01783019,
1801.433,0.01710297,
1799.504,0.01618486,
1797.575,0.01501436,
1795.647,0.01360495,
1793.718,0.01205357,
1791.789,0.01055034,
1789.860,0.009211281,
1787.932,0.008006745,
1786.003,0.00692547,
1784.074,0.005997582,
1782.145,0.0052073,
1780.217,0.004525845,
1778.288,0.003954977,
1776.359,0.003479914,
1774.431,0.003061454,
1772.502,0.002702869,
1770.573,0.002433304,
1768.644,0.002241135,
1766.716,0.002092967,
1764.787,0.001964199,
1762.858,0.001834409,
1760.929,0.001696513,
1759.001,0.001555619,
1757.072,0.001414484,
1755.143,0.001277894,
1753.215,0.001157698,
1751.286,0.001072261,
1749.357,0.001024653,
1747.428,0.000974569,
1745.500,0.0008920941,
1743.571,0.0008068129,
1741.642,0.0007407001,
1739.713,0.0006876868,
1737.785,0.0006462243,
1735.856,0.0006023069,
1733.927,0.0005562975,
1731.999,0.000518322,
1730.070,0.0004703016,
1728.141,0.000390733,
1726.212,0.0002768614,
1724.284,0.0001609363,
1722.355,8.648956E-5,
1720.426,5.646563E-5,
1718.497,4.594936E-5,
1716.569,4.510917E-5,
1714.640,3.624391E-5,
1712.711,3.015595E-5,
1710.783,4.351167E-5,
1708.854,4.617008E-5,
1706.925,4.034581E-5,
1704.996,2.770381E-5,
1703.068,7.239712E-5,
1701.139,0.0001948565,
1699.210,0.0003653859,
1697.281,0.0005696071,
1695.353,0.0008362231,
1693.424,0.001231816,
1691.495,0.001807928,
1689.567,0.002622018,
1687.638,0.003687122,
1685.709,0.004941847,
1683.780,0.006255561,
1681.852,0.007291694,
1679.923,0.007704505,
1677.994,0.007574834,
1676.065,0.007322031,
1674.137,0.007200761,
1672.208,0.007096422,
1670.279,0.006860309,
1668.350,0.006530081,
1666.422,0.006116221,
1664.493,0.005554896,
1662.564,0.004889562,
1660.636,0.004233751,
1658.707,0.003642666,
1656.778,0.003124965,
1654.849,0.002689747,
1652.921,0.002371099,
1650.992,0.00217111,
1649.063,0.002016375,
1647.134,0.001865075,
1645.206,0.001741591,
1643.277,0.001658534,
1641.348,0.001581057,
1639.420,0.00147266,
1637.491,0.001361199,
1635.562,0.001298489,
1633.633,0.001280766,
1631.705,0.001257719,
1629.776,0.001205504,
1627.847,0.001150221,
1625.918,0.001112539,
1623.990,0.001087482,
1622.061,0.00106584,
1620.132,0.001024984,
1618.204,0.000954387,
1616.275,0.0008947003,
1614.346,0.0008678066,
1612.417,0.0008478887,
1610.489,0.0008400183,
1608.560,0.000846574,
1606.631,0.0008328317,
1604.702,0.0007975348,
1602.774,0.0007746043,
1600.845,0.0007706659,
1598.916,0.0007674515,
1596.988,0.0007590864,
1595.059,0.0007480202,
1593.130,0.0007212542,
1591.201,0.0006766134,
1589.273,0.0006356525,
1587.344,0.0006149842,
1585.415,0.00061392,
1583.486,0.0006212041,
1581.558,0.0006234328,
1579.629,0.0006199518,
1577.700,0.0006182119,
1575.771,0.0006205792,
1573.843,0.0006190771,
1571.914,0.0005975001,
1569.985,0.0005720547,
1568.057,0.0005682173,
1566.128,0.0005675725,
1564.199,0.0005594657,
1562.270,0.0005549004,
1560.342,0.0005398549,
1558.413,0.0005183386,
1556.484,0.0005186944,
1554.555,0.000526418,
1552.627,0.0005248303,
1550.698,0.0005250075,
1548.769,0.0005323509,
1546.841,0.0005443687,
1544.912,0.0005499969,
1542.983,0.0005416325,
1541.054,0.000522386,
1539.126,0.0005050063,
1537.197,0.0005016131,
1535.268,0.000511543,
1533.339,0.0005222844,
1531.411,0.0005163689,
1529.482,0.0004990615,
1527.553,0.0004931933,
1525.625,0.0005029315,
1523.696,0.0005125959,
1521.767,0.0005082016,
1519.838,0.0004977263,
1517.910,0.0004960155,
1515.981,0.0004890357,
1514.052,0.0004732803,
1512.123,0.0004717776,
1510.195,0.000488797,
1508.266,0.0005042717,
1506.337,0.0005030869,
1504.409,0.0004980883,
1502.480,0.0005091917,
1500.551,0.0005224145,
1498.622,0.000518375,
1496.694,0.0005164318,
1494.765,0.0005267933,
1492.836,0.0005358467,
1490.907,0.000537564,
1488.979,0.0005420402,
1487.050,0.0005536097,
1485.121,0.0005657985,
1483.193,0.000578748,
1481.264,0.0005944972,
1479.335,0.0006044941,
1477.406,0.0006117528,
1475.478,0.000620466,
1473.549,0.0006273106,
1471.620,0.0006393021,
1469.691,0.000652311,
1467.763,0.0006606837,
1465.834,0.0006719766,
1463.905,0.0006712387,
1461.976,0.0006611386,
1460.048,0.0006688262,
1458.119,0.0006779094,
1456.190,0.0006608186,
1454.262,0.0006101594,
1452.333,0.0005234926,
1450.404,0.0004310662,
1448.475,0.0003836213,
1446.547,0.0003916626,
1444.618,0.0004339571,
1442.689,0.000498069,
1440.760,0.0005642304,
1438.832,0.0006063051,
1436.903,0.0006274848,
1434.974,0.0006364915,
1433.046,0.0006206142,
1431.117,0.0005835756,
1429.188,0.0005475064,
1427.259,0.0005244715,
1425.331,0.000521993,
1423.402,0.000532712,
1421.473,0.0005310069,
1419.544,0.0005202394,
1417.616,0.0005354558,
1415.687,0.0005816297,
1413.758,0.0006229886,
1411.830,0.0006389294,
1409.901,0.0006616198,
1407.972,0.0007137488,
1406.043,0.0007745372,
1404.115,0.0008381865,
1402.186,0.0009059153,
1400.257,0.0009615793,
1398.328,0.001012027,
1396.400,0.001076367,
1394.471,0.001159854,
1392.542,0.001261653,
1390.614,0.001367424,
1388.685,0.001464291,
1386.756,0.001562152,
1384.827,0.001668228,
1382.899,0.001786295,
1380.970,0.001934904,
1379.041,0.002117327,
1377.112,0.002334011,
1375.184,0.002605174,
1373.255,0.002917716,
1371.326,0.003233849,
1369.398,0.003547167,
1367.469,0.003838773,
1365.540,0.00405485,
1363.611,0.004214259,
1361.683,0.004432954,
1359.754,0.004750975,
1357.825,0.005043917,
1355.896,0.005103,
1353.968,0.004706871,
1352.039,0.00381862,
1350.110,0.002776155,
1348.181,0.002043899,
1346.253,0.001797626,
1344.324,0.0018404,
1342.395,0.001828302,
1340.467,0.001621568,
1338.538,0.001447489,
1336.609,0.001623629,
1334.680,0.002206215,
1332.752,0.003003152,
1330.823,0.003765201,
1328.894,0.004275688,
1326.965,0.00437269,
1325.037,0.004017292,
1323.108,0.003352534,
1321.179,0.002600891,
1319.251,0.001917809,
1317.322,0.001362639,
1315.393,0.0009460298,
1313.464,0.0006925091,
1311.536,0.000644726,
1309.607,0.0008186101,
1307.678,0.001211278,
1305.749,0.001823332,
1303.821,0.002644331,
1301.892,0.003617635,
1299.963,0.0046068,
1298.035,0.005408951,
1296.106,0.005845014,
1294.177,0.005850402,
1292.248,0.005489661,
1290.320,0.004903609,
1288.391,0.004235083,
1286.462,0.003586369,
1284.533,0.003013549,
1282.605,0.002528078,
1280.676,0.002127393,
1278.747,0.001826517,
1276.819,0.001624791,
1274.890,0.001492694,
1272.961,0.001397348,
1271.032,0.001303586,
1269.104,0.001204314,
1267.175,0.001132073,
1265.246,0.001088857,
1263.317,0.001046736,
1261.389,0.001005482,
1259.460,0.0009514415,
1257.531,0.0008561006,
1255.603,0.0007517448,
1253.674,0.0006888639,
1251.745,0.0006431947,
1249.816,0.0005809295,
1247.888,0.0005266346,
1245.959,0.0005018387,
1244.030,0.0004897858,
1242.101,0.0004629772,
1240.173,0.0004182537,
1238.244,0.0003742634,
1236.315,0.0003352814,
1234.386,0.0002933072,
1232.458,0.0002643446,
1230.529,0.0002532229,
1228.600,0.0002400957,
1226.672,0.0002086994,
1224.743,0.0001794111,
1222.814,0.0001863074,
1220.885,0.0002415798,
1218.957,0.0003257334,
1217.028,0.000394476,
1215.099,0.0004321449,
1213.170,0.0004499601,
1211.242,0.0004476265,
1209.313,0.0004214961,
1207.384,0.0003788962,
1205.456,0.000348118,
1203.527,0.0003433742,
1201.598,0.0003348674,
1199.669,0.0003104686,
1197.741,0.0002947274,
1195.812,0.0002938926,
1193.883,0.0002847449,
1191.954,0.000259737,
1190.026,0.0002367713,
1188.097,0.0002241271,
1186.168,0.000212909,
1184.240,0.0001995448,
1182.311,0.0001839541,
1180.382,0.0001846302,
1178.453,0.0001877189,
1176.525,0.0001814925,
1174.596,0.0001710862,
1172.667,0.0001484431,
1170.738,0.000119395,
1168.810,0.0001147634,
1166.881,0.0001376713,
1164.952,0.0001428713,
1163.024,0.0001347178,
1161.095,0.0001278095,
1159.166,0.0001288938,
1157.237,0.0001355368,
1155.309,0.0001231688,
1153.380,8.734735E-5,
1151.451,8.522972E-5,
1149.522,0.0001090415,
1147.594,0.000128054,
1145.665,0.0001479892,
1143.736,0.0001388979,
1141.807,0.0001112683,
1139.879,0.0001210723,
1137.950,0.0001426598,
1136.021,0.0001613821,
1134.093,0.0001734903,
1132.164,0.0001444321,
1130.235,0.0001132022,
1128.306,0.0001144365,
1126.378,0.0001235781,
1124.449,0.0001085206,
1122.520,0.0001085682,
1120.591,8.944009E-5,
1118.663,5.426861E-5,
1116.734,7.828278E-5,
1114.805,7.043063E-5,
1112.877,7.450522E-5,
1110.948,7.46016E-5,
1109.019,0.0001011912,
1107.090,0.0001385223,
1105.162,0.0001187587,
1103.233,7.433198E-5,
1101.304,3.645085E-5,
1099.375,5.515406E-5,
1097.447,7.31304E-5,
1095.518,6.213297E-5,
1093.589,4.09142E-5,
1091.661,6.333143E-5,
1089.732,8.519688E-5,
1087.803,6.547874E-5,
1085.874,4.499688E-5,
1083.946,4.197059E-5,
1082.017,5.816254E-5,
1080.088,3.172618E-5,
1078.159,7.220572E-5,
1076.231,7.58257E-5,
1074.302,7.049544E-5,
1072.373,7.934051E-5,
1070.445,4.191813E-5,
1068.516,8.106537E-5,
1066.587,0.0001047161,
1064.658,0.0001080504,
1062.730,0.0001122834,
1060.801,0.0001322432,
1058.872,0.0001384622,
1056.943,0.0001167538,
1055.015,9.179601E-5,
1053.086,0.0001101511,
1051.157,0.0001087592,
1049.229,8.908153E-5,
1047.300,9.907497E-5,
1045.371,8.278804E-5,
1043.442,5.886957E-5,
1041.514,6.760365E-5,
1039.585,9.654355E-5,
1037.656,0.0001034189,
1035.727,9.095178E-5,
1033.799,8.367885E-5,
1031.870,6.259899E-5,
1029.941,4.906875E-5,
1028.012,6.133266E-5,
1026.084,8.600055E-5,
1024.155,8.635805E-5,
1022.226,6.795112E-5,
1020.298,9.155177E-5,
1018.369,8.421964E-5,
1016.440,4.789932E-5,
1014.511,2.817382E-5,
1012.583,1.647283E-5,
1010.654,5.008702E-5,
1008.725,4.240837E-5,
1006.796,2.945474E-5,
1004.868,4.45905E-5,
1002.939,7.616617E-5,
1001.010,7.686688E-5,
999.082,5.345971E-5,
997.153,5.728977E-5,
995.224,7.912319E-5,
993.295,9.187002E-5,
991.367,6.942834E-5,
989.438,4.365054E-5,
987.509,4.526395E-5,
985.580,3.533059E-5,
983.652,4.279063E-5,
981.723,5.624142E-5,
979.794,7.251096E-5,
977.866,0.0001011642,
975.937,8.803726E-5,
974.008,4.701101E-5,
972.079,3.0721E-5,
970.151,4.724647E-5,
968.222,6.224159E-5,
966.293,7.60343E-5,
964.364,8.658298E-5,
962.436,4.70247E-5,
960.507,4.208315E-5,
958.578,6.31884E-5,
956.650,6.704515E-5,
954.721,3.151651E-5,
952.792,5.121075E-5,
950.863,6.819974E-5,
948.935,8.859582E-5,
947.006,0.0001020085,
945.077,7.397631E-5,
943.148,6.79862E-5,
941.220,9.587879E-5,
939.291,9.383078E-5,
937.362,9.52012E-5,
935.434,0.0001386111,
933.505,0.0001690373,
931.576,0.0001109604,
929.647,5.094793E-5,
927.719,3.877271E-5,
925.790,5.459085E-5,
923.861,5.056144E-5,
921.932,5.218553E-5,
920.004,9.455371E-5,
918.075,0.0001098647,
916.146,0.0001055927,
914.217,0.000101291,
912.289,0.0001204229,
910.360,0.0001627912,
908.431,0.0001539638,
906.503,9.531364E-5,
904.574,5.316609E-5,
902.645,3.85278E-5,
900.716,3.448601E-5,
898.788,5.298365E-5,
896.859,7.997339E-5,
894.930,0.0001078876,
893.001,8.721155E-5,
891.073,4.783525E-5,
889.144,7.314055E-5,
887.215,7.504545E-5,
885.287,9.165704E-5,
883.358,0.0001416808,
881.429,0.0001510516,
879.500,0.0001227814,
877.572,8.985845E-5,
875.643,8.720648E-5,
873.714,0.0001225519,
871.785,0.0001271783,
869.857,9.514519E-5,
867.928,7.519976E-5,
865.999,6.898095E-5,
864.071,8.077148E-5,
862.142,0.0001112071,
860.213,8.886545E-5,
858.284,6.268336E-5,
856.356,0.0001005869,
854.427,0.0001229277,
852.498,0.0001093208,
850.569,0.000120251,
848.641,0.0001130128,
846.712,0.0001203504,
844.783,0.0001664247,
842.855,0.0001271614,
840.926,9.782494E-5,
838.997,8.333369E-5,
837.068,0.0001327419,
835.140,9.896535E-5,
833.211,8.884899E-5,
831.282,9.572416E-5,
829.353,0.0001107571,
827.425,0.0001195115,
825.496,0.0001300203,
823.567,0.0001360225,
821.639,0.0001860493,
819.710,0.0002228426,
817.781,0.0001534447,
815.852,0.0001048598,
813.924,7.434344E-5,
811.995,5.301678E-5,
810.066,8.235851E-5,
808.137,0.0001065202,
806.209,6.471453E-5,
804.280,0.0001135422,
802.351,0.0001428755,
800.422,8.322672E-5,
798.494,7.921174E-5,
796.565,0.0001266758,
794.636,0.0001155326,
792.708,0.0001003635,
790.779,0.0001202802,
788.850,0.0001982933,
786.921,0.0002092862,
784.993,0.0001826973,
783.064,0.000175988,
781.135,0.0001404931,
779.206,0.0001260745,
777.278,0.0001382902,
775.349,9.530988E-5,
773.420,9.468976E-5,
771.492,0.0001272074,
769.563,9.838915E-5,
767.634,0.0001211809,
765.705,0.0001604068,
763.777,0.0001291696,
761.848,9.698786E-5,
759.919,9.036106E-5,
757.990,0.0001192859,
756.062,7.39988E-5,
754.133,8.662137E-5,
752.204,0.0001863906,
750.276,0.0002218777,
748.347,0.0001507295,
746.418,9.383303E-5,
744.489,0.0001171315,
742.561,0.0001551264,
740.632,0.0001495625,
738.703,0.0001069069,
736.774,0.0001325367,
734.846,0.0001230513,
732.917,9.255973E-5,
730.988,0.0001267303,
729.060,0.0001492607,
727.131,0.0001746937,
725.202,0.0001270532,
723.273,7.148501E-5,
721.345,3.846002E-5,
719.416,5.885179E-5,
717.487,5.988766E-5,
715.558,0.0001160934,
713.630,0.0001764449,
711.701,0.000146598,
709.772,0.0001371444,
707.843,0.0001195784,
705.915,0.0001096113,
703.986,0.0001106401,
702.057,0.0001068897,
700.129,9.665354E-5,
698.200,8.315772E-5,
696.271,0.0001749882,
694.342,0.0002413631,
692.414,0.0002476815,
690.485,0.0002459043,
688.556,0.0002570259,
686.627,0.0002386479,
684.699,0.0001820019,
682.770,0.0001725798,
680.841,0.0001473207,
678.913,0.000136095,
676.984,0.0002048368,
675.055,0.0002224519,
673.126,0.0002070062,
671.198,0.0001875243,
669.269,0.000214579,
667.340,0.0002603923,
665.411,0.0002048927,
663.483,0.0001600673,
661.554,0.0001927298,
659.625,0.0001621519,
657.697,0.0001900169,
655.768,0.0001551403,
653.839,0.0001736977,
651.910,0.0001273028,
649.982,0.0002193737,
648.053,0.0002205702,
646.124,0.0001675066,
644.195,0.0001343196,
642.267,0.0001654041,
640.338,0.0001649578,
638.409,5.102904E-5,
636.481,0.0001224102,
634.552,0.0001449772,
632.623,0.0001274813,
630.694,0.0001341235,
628.766,0.0001241863,
626.837,0.0001723681,
624.908,0.0002918221,
622.979,0.0003115984,
621.051,0.0002689062,
619.122,0.0004333926,
617.193,0.0004214303,
615.265,0.0002632651,
613.336,0.0001958913,
611.407,0.0002670757,
609.478,0.0003091541,
607.550,0.0003357682,
605.621,0.0003443164,
603.692,0.0001866761,
601.763,0.0002617694,
599.835,0.0003748795,
597.906,0.0003954234,
595.977,0.0004731533,
594.048,0.0004186752,
592.120,0.0003566049,
590.191,0.0003222216,
588.262,0.0003330641,
586.334,0.0004386471,
584.405,0.0004618338,
582.476,0.0004474751,
580.547,0.0003344454,
578.619,0.000230732,
576.690,0.0003317696,
574.761,0.0005044147,
572.832,0.0004785231,
570.904,0.000496274,
568.975,0.0004856886,
567.046,0.0002926313,
565.118,0.0004470584,
563.189,0.0004090025,
561.260,0.0002798137,
559.331,0.0004773889,
557.403,0.0004453112,
555.474,0.0003169666,
553.545,0.0003896193,
551.616,0.0004395354,
549.688,0.0003569831,
547.759,0.0003422128,
545.830,0.0004993149,
543.902,0.0005245993,
541.973,0.00038758,
540.044,0.0002754248,
538.115,0.0003625067,
536.187,0.0004172803,
534.258,0.0002125499,
532.329,0.0002402618,
530.400,0.0005015627,
528.472,0.000639543,
526.543,0.0005318957,
524.614,0.0004101847,
522.686,0.0003143362,
520.757,0.0001588699,
518.828,0.000100279,
516.899,0.0004433259,
514.971,0.0007055701,
513.042,0.000698153,
511.113,0.0005086769,
509.184,0.0004989811,
507.256,0.0004504026,
505.327,0.000366605,
503.398,0.0002450312,
501.470,0.0004036817,
499.541,0.0004593927,
497.612,0.0002637469,
495.683,0.0004398032,
493.755,0.0006615352,
491.826,0.0005224266,
489.897,0.0003673016,
487.968,0.0003130713,
486.040,0.0004094101,
484.111,0.0004961194,
482.182,0.0003990247,
480.253,0.0003846468,
478.325,0.0006729365,
476.396,0.001054664,
474.467,0.001027205,
472.539,0.0007874873,
470.610,0.0006828648,
468.681,0.0005814576,
466.752,0.0006161184,
464.824,0.0008721547,
462.895,0.0008132053,
460.966,0.000751659,
459.037,0.0005226108,
457.109,0.0002425017,
455.180,0.0004177901,
453.251,0.0003434965,
451.323,0.0001710037,
449.394,0.0005232175,
447.465,0.0006704447,
445.536,0.0006157206,
443.608,0.0007420607,
441.679,0.0007247017,
439.750,0.0006406774,
437.821,0.0008600407,
435.893,0.0009046182,
433.964,0.0008975131,
432.035,0.0003628255,
430.107,0.0004052665,
428.178,0.0003486899,
426.249,0.0006735611,
424.320,0.0006782294,
422.392,0.0006849077,
420.463,0.001448906,
418.534,0.0007614599,
416.605,0.001446043,
414.677,0.001695447,
412.748,0.001647685,
410.819,0.001644825,
408.891,0.002302681,
406.962,0.002625142,
405.033,0.002156795,
403.104,0.002465089,
401.176,0.00306057,
399.247,0.003203256,
397.318,0.004128059,
395.389,0.005387182,
393.461,0.004847222,
391.532,0.003353964,
389.603,0.003189917,
387.675,0.005027644,
385.746,0.00557485,
383.817,0.005968675,
381.888,0.005541257,
379.960,0.008020235,
378.031,0.01171551,
376.102,0.009084846,
374.173,0.006182343,
