Created as New Dataset,Sample 028 By Administrator Date Tuesday, November 30 2021
cm-1,%T
7000.00,8.97
6999.00,9.07
6998.00,9.18
6997.00,9.30
6996.00,9.42
6995.00,9.55
6994.00,9.69
6993.00,9.83
6992.00,9.98
6991.00,10.13
6990.00,10.29
6989.00,10.45
6988.00,10.61
6987.00,10.77
6986.00,10.93
6985.00,11.09
6984.00,11.25
6983.00,11.42
6982.00,11.59
6981.00,11.77
6980.00,11.95
6979.00,12.14
6978.00,12.33
6977.00,12.52
6976.00,12.71
6975.00,12.91
6974.00,13.11
6973.00,13.31
6972.00,13.52
6971.00,13.72
6970.00,13.93
6969.00,14.13
6968.00,14.34
6967.00,14.55
6966.00,14.76
6965.00,14.95
6964.00,15.15
6963.00,15.36
6962.00,15.56
6961.00,15.77
6960.00,15.97
6959.00,16.18
6958.00,16.39
6957.00,16.59
6956.00,16.79
6955.00,16.99
6954.00,17.17
6953.00,17.33
6952.00,17.49
6951.00,17.64
6950.00,17.79
6949.00,17.94
6948.00,18.08
6947.00,18.21
6946.00,18.33
6945.00,18.44
6944.00,18.55
6943.00,18.66
6942.00,18.75
6941.00,18.83
6940.00,18.90
6939.00,18.97
6938.00,19.02
6937.00,19.05
6936.00,19.07
6935.00,19.09
6934.00,19.11
6933.00,19.12
6932.00,19.12
6931.00,19.10
6930.00,19.08
6929.00,19.04
6928.00,18.98
6927.00,18.91
6926.00,18.82
6925.00,18.72
6924.00,18.61
6923.00,18.50
6922.00,18.38
6921.00,18.25
6920.00,18.12
6919.00,17.98
6918.00,17.83
6917.00,17.68
6916.00,17.51
6915.00,17.33
6914.00,17.15
6913.00,16.96
6912.00,16.77
6911.00,16.58
6910.00,16.38
6909.00,16.18
6908.00,15.99
6907.00,15.79
6906.00,15.58
6905.00,15.38
6904.00,15.16
6903.00,14.95
6902.00,14.74
6901.00,14.52
6900.00,14.30
6899.00,14.08
6898.00,13.86
6897.00,13.65
6896.00,13.44
6895.00,13.23
6894.00,13.01
6893.00,12.80
6892.00,12.59
6891.00,12.38
6890.00,12.19
6889.00,11.99
6888.00,11.81
6887.00,11.63
6886.00,11.45
6885.00,11.28
6884.00,11.11
6883.00,10.93
6882.00,10.75
6881.00,10.57
6880.00,10.40
6879.00,10.23
6878.00,10.06
6877.00,9.90
6876.00,9.74
6875.00,9.59
6874.00,9.45
6873.00,9.30
6872.00,9.16
6871.00,9.03
6870.00,8.90
6869.00,8.77
6868.00,8.64
6867.00,8.52
6866.00,8.40
6865.00,8.28
6864.00,8.17
6863.00,8.07
6862.00,7.97
6861.00,7.88
6860.00,7.78
6859.00,7.69
6858.00,7.59
6857.00,7.50
6856.00,7.41
6855.00,7.32
6854.00,7.24
6853.00,7.16
6852.00,7.08
6851.00,7.01
6850.00,6.94
6849.00,6.87
6848.00,6.80
6847.00,6.74
6846.00,6.68
6845.00,6.63
6844.00,6.58
6843.00,6.53
6842.00,6.47
6841.00,6.42
6840.00,6.38
6839.00,6.35
6838.00,6.32
6837.00,6.29
6836.00,6.25
6835.00,6.22
6834.00,6.19
6833.00,6.16
6832.00,6.14
6831.00,6.11
6830.00,6.09
6829.00,6.06
6828.00,6.04
6827.00,6.02
6826.00,6.00
6825.00,5.98
6824.00,5.97
6823.00,5.96
6822.00,5.96
6821.00,5.96
6820.00,5.96
6819.00,5.97
6818.00,5.96
6817.00,5.96
6816.00,5.97
6815.00,5.98
6814.00,5.99
6813.00,6.01
6812.00,6.02
6811.00,6.04
6810.00,6.06
6809.00,6.08
6808.00,6.11
6807.00,6.13
6806.00,6.17
6805.00,6.20
6804.00,6.23
6803.00,6.26
6802.00,6.29
6801.00,6.33
6800.00,6.36
6799.00,6.41
6798.00,6.45
6797.00,6.50
6796.00,6.55
6795.00,6.60
6794.00,6.65
6793.00,6.71
6792.00,6.77
6791.00,6.83
6790.00,6.89
6789.00,6.96
6788.00,7.03
6787.00,7.10
6786.00,7.18
6785.00,7.27
6784.00,7.36
6783.00,7.45
6782.00,7.55
6781.00,7.64
6780.00,7.73
6779.00,7.83
6778.00,7.93
6777.00,8.04
6776.00,8.15
6775.00,8.26
6774.00,8.38
6773.00,8.50
6772.00,8.62
6771.00,8.74
6770.00,8.87
6769.00,9.00
6768.00,9.15
6767.00,9.30
6766.00,9.46
6765.00,9.62
6764.00,9.77
6763.00,9.93
6762.00,10.09
6761.00,10.25
6760.00,10.42
6759.00,10.60
6758.00,10.78
6757.00,10.96
6756.00,11.14
6755.00,11.33
6754.00,11.52
6753.00,11.71
6752.00,11.90
6751.00,12.10
6750.00,12.31
6749.00,12.51
6748.00,12.72
6747.00,12.92
6746.00,13.13
6745.00,13.34
6744.00,13.56
6743.00,13.77
6742.00,13.97
6741.00,14.18
6740.00,14.38
6739.00,14.59
6738.00,14.79
6737.00,14.99
6736.00,15.19
6735.00,15.38
6734.00,15.58
6733.00,15.76
6732.00,15.93
6731.00,16.09
6730.00,16.25
6729.00,16.40
6728.00,16.55
6727.00,16.68
6726.00,16.81
6725.00,16.93
6724.00,17.04
6723.00,17.14
6722.00,17.24
6721.00,17.32
6720.00,17.39
6719.00,17.45
6718.00,17.50
6717.00,17.53
6716.00,17.55
6715.00,17.56
6714.00,17.55
6713.00,17.53
6712.00,17.50
6711.00,17.46
6710.00,17.41
6709.00,17.35
6708.00,17.29
6707.00,17.21
6706.00,17.12
6705.00,17.02
6704.00,16.90
6703.00,16.78
6702.00,16.64
6701.00,16.50
6700.00,16.36
6699.00,16.22
6698.00,16.07
6697.00,15.91
6696.00,15.74
6695.00,15.56
6694.00,15.36
6693.00,15.17
6692.00,14.97
6691.00,14.78
6690.00,14.59
6689.00,14.39
6688.00,14.20
6687.00,14.00
6686.00,13.81
6685.00,13.61
6684.00,13.41
6683.00,13.20
6682.00,12.99
6681.00,12.79
6680.00,12.58
6679.00,12.38
6678.00,12.19
6677.00,11.99
6676.00,11.80
6675.00,11.62
6674.00,11.43
6673.00,11.25
6672.00,11.06
6671.00,10.88
6670.00,10.71
6669.00,10.54
6668.00,10.37
6667.00,10.20
6666.00,10.04
6665.00,9.88
6664.00,9.72
6663.00,9.57
6662.00,9.42
6661.00,9.28
6660.00,9.13
6659.00,9.00
6658.00,8.86
6657.00,8.72
6656.00,8.59
6655.00,8.46
6654.00,8.34
6653.00,8.22
6652.00,8.10
6651.00,8.00
6650.00,7.89
6649.00,7.79
6648.00,7.69
6647.00,7.60
6646.00,7.50
6645.00,7.41
6644.00,7.32
6643.00,7.24
6642.00,7.16
6641.00,7.08
6640.00,7.01
6639.00,6.93
6638.00,6.86
6637.00,6.78
6636.00,6.71
6635.00,6.64
6634.00,6.58
6633.00,6.52
6632.00,6.47
6631.00,6.41
6630.00,6.36
6629.00,6.32
6628.00,6.28
6627.00,6.24
6626.00,6.20
6625.00,6.16
6624.00,6.12
6623.00,6.09
6622.00,6.06
6621.00,6.03
6620.00,6.00
6619.00,5.98
6618.00,5.95
6617.00,5.94
6616.00,5.92
6615.00,5.91
6614.00,5.90
6613.00,5.89
6612.00,5.89
6611.00,5.88
6610.00,5.87
6609.00,5.87
6608.00,5.87
6607.00,5.87
6606.00,5.88
6605.00,5.89
6604.00,5.90
6603.00,5.91
6602.00,5.92
6601.00,5.93
6600.00,5.94
6599.00,5.96
6598.00,5.97
6597.00,5.99
6596.00,6.02
6595.00,6.05
6594.00,6.08
6593.00,6.11
6592.00,6.14
6591.00,6.17
6590.00,6.20
6589.00,6.24
6588.00,6.29
6587.00,6.34
6586.00,6.39
6585.00,6.45
6584.00,6.51
6583.00,6.57
6582.00,6.63
6581.00,6.69
6580.00,6.75
6579.00,6.81
6578.00,6.88
6577.00,6.95
6576.00,7.02
6575.00,7.09
6574.00,7.17
6573.00,7.25
6572.00,7.34
6571.00,7.43
6570.00,7.52
6569.00,7.62
6568.00,7.71
6567.00,7.82
6566.00,7.92
6565.00,8.03
6564.00,8.15
6563.00,8.28
6562.00,8.41
6561.00,8.54
6560.00,8.66
6559.00,8.79
6558.00,8.93
6557.00,9.07
6556.00,9.21
6555.00,9.36
6554.00,9.51
6553.00,9.67
6552.00,9.83
6551.00,9.99
6550.00,10.16
6549.00,10.33
6548.00,10.51
6547.00,10.69
6546.00,10.88
6545.00,11.07
6544.00,11.26
6543.00,11.45
6542.00,11.64
6541.00,11.84
6540.00,12.03
6539.00,12.22
6538.00,12.42
6537.00,12.62
6536.00,12.82
6535.00,13.02
6534.00,13.23
6533.00,13.44
6532.00,13.65
6531.00,13.87
6530.00,14.08
6529.00,14.29
6528.00,14.50
6527.00,14.70
6526.00,14.91
6525.00,15.12
6524.00,15.32
6523.00,15.52
6522.00,15.72
6521.00,15.92
6520.00,16.11
6519.00,16.30
6518.00,16.48
6517.00,16.66
6516.00,16.83
6515.00,17.00
6514.00,17.17
6513.00,17.34
6512.00,17.49
6511.00,17.63
6510.00,17.76
6509.00,17.88
6508.00,17.99
6507.00,18.10
6506.00,18.20
6505.00,18.28
6504.00,18.35
6503.00,18.41
6502.00,18.47
6501.00,18.50
6500.00,18.53
6499.00,18.54
6498.00,18.53
6497.00,18.52
6496.00,18.50
6495.00,18.46
6494.00,18.40
6493.00,18.34
6492.00,18.26
6491.00,18.17
6490.00,18.07
6489.00,17.95
6488.00,17.83
6487.00,17.70
6486.00,17.56
6485.00,17.41
6484.00,17.26
6483.00,17.11
6482.00,16.94
6481.00,16.77
6480.00,16.58
6479.00,16.39
6478.00,16.19
6477.00,15.98
6476.00,15.76
6475.00,15.55
6474.00,15.33
6473.00,15.12
6472.00,14.90
6471.00,14.69
6470.00,14.48
6469.00,14.26
6468.00,14.04
6467.00,13.81
6466.00,13.59
6465.00,13.36
6464.00,13.14
6463.00,12.92
6462.00,12.71
6461.00,12.49
6460.00,12.28
6459.00,12.07
6458.00,11.87
6457.00,11.66
6456.00,11.46
6455.00,11.26
6454.00,11.06
6453.00,10.87
6452.00,10.69
6451.00,10.51
6450.00,10.33
6449.00,10.15
6448.00,9.97
6447.00,9.81
6446.00,9.64
6445.00,9.48
6444.00,9.32
6443.00,9.17
6442.00,9.02
6441.00,8.88
6440.00,8.73
6439.00,8.59
6438.00,8.45
6437.00,8.32
6436.00,8.20
6435.00,8.09
6434.00,7.97
6433.00,7.86
6432.00,7.75
6431.00,7.65
6430.00,7.54
6429.00,7.44
6428.00,7.33
6427.00,7.23
6426.00,7.13
6425.00,7.04
6424.00,6.95
6423.00,6.86
6422.00,6.79
6421.00,6.72
6420.00,6.64
6419.00,6.57
6418.00,6.50
6417.00,6.43
6416.00,6.36
6415.00,6.30
6414.00,6.24
6413.00,6.19
6412.00,6.14
6411.00,6.10
6410.00,6.06
6409.00,6.02
6408.00,5.97
6407.00,5.93
6406.00,5.89
6405.00,5.85
6404.00,5.81
6403.00,5.78
6402.00,5.75
6401.00,5.72
6400.00,5.70
6399.00,5.67
6398.00,5.65
6397.00,5.63
6396.00,5.61
6395.00,5.60
6394.00,5.59
6393.00,5.58
6392.00,5.57
6391.00,5.56
6390.00,5.55
6389.00,5.55
6388.00,5.54
6387.00,5.54
6386.00,5.54
6385.00,5.55
6384.00,5.55
6383.00,5.57
6382.00,5.58
6381.00,5.59
6380.00,5.60
6379.00,5.61
6378.00,5.62
6377.00,5.64
6376.00,5.66
6375.00,5.68
6374.00,5.70
6373.00,5.73
6372.00,5.76
6371.00,5.79
6370.00,5.82
6369.00,5.85
6368.00,5.88
6367.00,5.92
6366.00,5.96
6365.00,6.00
6364.00,6.05
6363.00,6.10
6362.00,6.15
6361.00,6.21
6360.00,6.27
6359.00,6.33
6358.00,6.39
6357.00,6.46
6356.00,6.53
6355.00,6.60
6354.00,6.67
6353.00,6.75
6352.00,6.82
6351.00,6.90
6350.00,6.99
6349.00,7.07
6348.00,7.17
6347.00,7.26
6346.00,7.36
6345.00,7.47
6344.00,7.58
6343.00,7.69
6342.00,7.81
6341.00,7.93
6340.00,8.06
6339.00,8.19
6338.00,8.32
6337.00,8.46
6336.00,8.61
6335.00,8.75
6334.00,8.91
6333.00,9.06
6332.00,9.22
6331.00,9.38
6330.00,9.54
6329.00,9.71
6328.00,9.89
6327.00,10.07
6326.00,10.26
6325.00,10.46
6324.00,10.65
6323.00,10.85
6322.00,11.06
6321.00,11.28
6320.00,11.49
6319.00,11.71
6318.00,11.93
6317.00,12.16
6316.00,12.39
6315.00,12.62
6314.00,12.86
6313.00,13.09
6312.00,13.33
6311.00,13.57
6310.00,13.81
6309.00,14.05
6308.00,14.30
6307.00,14.54
6306.00,14.78
6305.00,15.03
6304.00,15.27
6303.00,15.50
6302.00,15.74
6301.00,15.96
6300.00,16.18
6299.00,16.40
6298.00,16.62
6297.00,16.82
6296.00,17.01
6295.00,17.19
6294.00,17.36
6293.00,17.53
6292.00,17.69
6291.00,17.84
6290.00,17.98
6289.00,18.11
6288.00,18.22
6287.00,18.32
6286.00,18.41
6285.00,18.48
6284.00,18.54
6283.00,18.58
6282.00,18.61
6281.00,18.62
6280.00,18.62
6279.00,18.61
6278.00,18.58
6277.00,18.54
6276.00,18.48
6275.00,18.41
6274.00,18.32
6273.00,18.21
6272.00,18.10
6271.00,17.97
6270.00,17.84
6269.00,17.70
6268.00,17.54
6267.00,17.38
6266.00,17.21
6265.00,17.02
6264.00,16.83
6263.00,16.64
6262.00,16.44
6261.00,16.23
6260.00,16.02
6259.00,15.81
6258.00,15.60
6257.00,15.38
6256.00,15.15
6255.00,14.93
6254.00,14.71
6253.00,14.48
6252.00,14.25
6251.00,14.02
6250.00,13.79
6249.00,13.56
6248.00,13.34
6247.00,13.11
6246.00,12.90
6245.00,12.68
6244.00,12.46
6243.00,12.25
6242.00,12.04
6241.00,11.83
6240.00,11.62
6239.00,11.41
6238.00,11.21
6237.00,11.00
6236.00,10.81
6235.00,10.62
6234.00,10.43
6233.00,10.26
6232.00,10.08
6231.00,9.91
6230.00,9.75
6229.00,9.60
6228.00,9.44
6227.00,9.29
6226.00,9.14
6225.00,8.99
6224.00,8.84
6223.00,8.70
6222.00,8.55
6221.00,8.42
6220.00,8.29
6219.00,8.17
6218.00,8.06
6217.00,7.95
6216.00,7.84
6215.00,7.74
6214.00,7.64
6213.00,7.53
6212.00,7.43
6211.00,7.32
6210.00,7.23
6209.00,7.14
6208.00,7.06
6207.00,6.98
6206.00,6.91
6205.00,6.85
6204.00,6.78
6203.00,6.72
6202.00,6.66
6201.00,6.60
6200.00,6.54
6199.00,6.49
6198.00,6.44
6197.00,6.40
6196.00,6.35
6195.00,6.31
6194.00,6.27
6193.00,6.23
6192.00,6.19
6191.00,6.16
6190.00,6.13
6189.00,6.10
6188.00,6.08
6187.00,6.06
6186.00,6.04
6185.00,6.02
6184.00,6.00
6183.00,5.99
6182.00,5.98
6181.00,5.97
6180.00,5.97
6179.00,5.97
6178.00,5.98
6177.00,5.98
6176.00,5.98
6175.00,5.98
6174.00,5.98
6173.00,5.99
6172.00,6.01
6171.00,6.03
6170.00,6.04
6169.00,6.06
6168.00,6.08
6167.00,6.10
6166.00,6.13
6165.00,6.16
6164.00,6.19
6163.00,6.23
6162.00,6.27
6161.00,6.31
6160.00,6.35
6159.00,6.39
6158.00,6.43
6157.00,6.49
6156.00,6.54
6155.00,6.59
6154.00,6.65
6153.00,6.70
6152.00,6.75
6151.00,6.81
6150.00,6.87
6149.00,6.93
6148.00,6.99
6147.00,7.06
6146.00,7.12
6145.00,7.19
6144.00,7.25
6143.00,7.32
6142.00,7.39
6141.00,7.46
6140.00,7.54
6139.00,7.62
6138.00,7.69
6137.00,7.77
6136.00,7.84
6135.00,7.92
6134.00,8.00
6133.00,8.07
6132.00,8.15
6131.00,8.23
6130.00,8.32
6129.00,8.42
6128.00,8.51
6127.00,8.62
6126.00,8.72
6125.00,8.83
6124.00,8.94
6123.00,9.05
6122.00,9.17
6121.00,9.29
6120.00,9.42
6119.00,9.56
6118.00,9.70
6117.00,9.85
6116.00,10.00
6115.00,10.15
6114.00,10.31
6113.00,10.48
6112.00,10.65
6111.00,10.84
6110.00,11.03
6109.00,11.22
6108.00,11.41
6107.00,11.61
6106.00,11.82
6105.00,12.03
6104.00,12.25
6103.00,12.47
6102.00,12.70
6101.00,12.93
6100.00,13.16
6099.00,13.40
6098.00,13.65
6097.00,13.90
6096.00,14.16
6095.00,14.42
6094.00,14.68
6093.00,14.93
6092.00,15.19
6091.00,15.45
6090.00,15.71
6089.00,15.97
6088.00,16.22
6087.00,16.47
6086.00,16.72
6085.00,16.96
6084.00,17.21
6083.00,17.45
6082.00,17.68
6081.00,17.91
6080.00,18.13
6079.00,18.34
6078.00,18.54
6077.00,18.73
6076.00,18.91
6075.00,19.08
6074.00,19.23
6073.00,19.38
6072.00,19.51
6071.00,19.62
6070.00,19.72
6069.00,19.81
6068.00,19.88
6067.00,19.93
6066.00,19.96
6065.00,19.98
6064.00,19.99
6063.00,19.98
6062.00,19.95
6061.00,19.90
6060.00,19.84
6059.00,19.76
6058.00,19.67
6057.00,19.56
6056.00,19.45
6055.00,19.32
6054.00,19.17
6053.00,19.01
6052.00,18.84
6051.00,18.65
6050.00,18.46
6049.00,18.25
6048.00,18.04
6047.00,17.82
6046.00,17.60
6045.00,17.36
6044.00,17.13
6043.00,16.88
6042.00,16.64
6041.00,16.38
6040.00,16.13
6039.00,15.87
6038.00,15.61
6037.00,15.35
6036.00,15.09
6035.00,14.83
6034.00,14.57
6033.00,14.31
6032.00,14.06
6031.00,13.80
6030.00,13.55
6029.00,13.30
6028.00,13.06
6027.00,12.82
6026.00,12.58
6025.00,12.34
6024.00,12.11
6023.00,11.88
6022.00,11.65
6021.00,11.43
6020.00,11.22
6019.00,11.01
6018.00,10.81
6017.00,10.61
6016.00,10.42
6015.00,10.23
6014.00,10.04
6013.00,9.85
6012.00,9.67
6011.00,9.49
6010.00,9.32
6009.00,9.15
6008.00,8.99
6007.00,8.83
6006.00,8.68
6005.00,8.53
6004.00,8.39
6003.00,8.25
6002.00,8.13
6001.00,8.00
6000.00,7.88
5999.00,7.77
5998.00,7.65
5997.00,7.54
5996.00,7.43
5995.00,7.32
5994.00,7.22
5993.00,7.12
5992.00,7.03
5991.00,6.94
5990.00,6.85
5989.00,6.77
5988.00,6.69
5987.00,6.62
5986.00,6.55
5985.00,6.48
5984.00,6.41
5983.00,6.34
5982.00,6.28
5981.00,6.22
5980.00,6.16
5979.00,6.11
5978.00,6.06
5977.00,6.01
5976.00,5.96
5975.00,5.92
5974.00,5.88
5973.00,5.84
5972.00,5.81
5971.00,5.78
5970.00,5.74
5969.00,5.71
5968.00,5.68
5967.00,5.66
5966.00,5.63
5965.00,5.61
5964.00,5.59
5963.00,5.58
5962.00,5.56
5961.00,5.55
5960.00,5.54
5959.00,5.53
5958.00,5.53
5957.00,5.52
5956.00,5.51
5955.00,5.51
5954.00,5.51
5953.00,5.51
5952.00,5.51
5951.00,5.51
5950.00,5.51
5949.00,5.52
5948.00,5.52
5947.00,5.53
5946.00,5.55
5945.00,5.56
5944.00,5.58
5943.00,5.60
5942.00,5.62
5941.00,5.65
5940.00,5.67
5939.00,5.70
5938.00,5.73
5937.00,5.76
5936.00,5.79
5935.00,5.83
5934.00,5.87
5933.00,5.91
5932.00,5.96
5931.00,6.01
5930.00,6.06
5929.00,6.11
5928.00,6.17
5927.00,6.22
5926.00,6.28
5925.00,6.34
5924.00,6.40
5923.00,6.46
5922.00,6.54
5921.00,6.62
5920.00,6.70
5919.00,6.79
5918.00,6.89
5917.00,6.98
5916.00,7.07
5915.00,7.17
5914.00,7.27
5913.00,7.37
5912.00,7.48
5911.00,7.60
5910.00,7.72
5909.00,7.85
5908.00,7.98
5907.00,8.12
5906.00,8.25
5905.00,8.39
5904.00,8.53
5903.00,8.68
5902.00,8.83
5901.00,8.99
5900.00,9.16
5899.00,9.33
5898.00,9.51
5897.00,9.70
5896.00,9.88
5895.00,10.08
5894.00,10.28
5893.00,10.49
5892.00,10.70
5891.00,10.92
5890.00,11.15
5889.00,11.38
5888.00,11.61
5887.00,11.85
5886.00,12.10
5885.00,12.35
5884.00,12.60
5883.00,12.86
5882.00,13.13
5881.00,13.40
5880.00,13.67
5879.00,13.95
5878.00,14.22
5877.00,14.50
5876.00,14.78
5875.00,15.06
5874.00,15.34
5873.00,15.62
5872.00,15.90
5871.00,16.18
5870.00,16.45
5869.00,16.72
5868.00,16.99
5867.00,17.25
5866.00,17.51
5865.00,17.76
5864.00,18.01
5863.00,18.24
5862.00,18.47
5861.00,18.68
5860.00,18.88
5859.00,19.07
5858.00,19.25
5857.00,19.42
5856.00,19.57
5855.00,19.71
5854.00,19.83
5853.00,19.94
5852.00,20.02
5851.00,20.10
5850.00,20.16
5849.00,20.20
5848.00,20.22
5847.00,20.24
5846.00,20.23
5845.00,20.20
5844.00,20.15
5843.00,20.08
5842.00,19.99
5841.00,19.88
5840.00,19.76
5839.00,19.63
5838.00,19.48
5837.00,19.32
5836.00,19.15
5835.00,18.96
5834.00,18.77
5833.00,18.56
5832.00,18.34
5831.00,18.11
5830.00,17.88
5829.00,17.63
5828.00,17.38
5827.00,17.13
5826.00,16.87
5825.00,16.61
5824.00,16.34
5823.00,16.08
5822.00,15.83
5821.00,15.56
5820.00,15.30
5819.00,15.03
5818.00,14.75
5817.00,14.48
5816.00,14.21
5815.00,13.94
5814.00,13.68
5813.00,13.43
5812.00,13.18
5811.00,12.93
5810.00,12.68
5809.00,12.44
5808.00,12.20
5807.00,11.96
5806.00,11.72
5805.00,11.49
5804.00,11.26
5803.00,11.04
5802.00,10.83
5801.00,10.62
5800.00,10.42
5799.00,10.22
5798.00,10.02
5797.00,9.84
5796.00,9.65
5795.00,9.47
5794.00,9.30
5793.00,9.12
5792.00,8.96
5791.00,8.79
5790.00,8.63
5789.00,8.48
5788.00,8.34
5787.00,8.19
5786.00,8.06
5785.00,7.92
5784.00,7.80
5783.00,7.67
5782.00,7.55
5781.00,7.43
5780.00,7.32
5779.00,7.21
5778.00,7.11
5777.00,7.01
5776.00,6.91
5775.00,6.82
5774.00,6.73
5773.00,6.63
5772.00,6.54
5771.00,6.46
5770.00,6.38
5769.00,6.31
5768.00,6.24
5767.00,6.17
5766.00,6.11
5765.00,6.04
5764.00,5.98
5763.00,5.92
5762.00,5.87
5761.00,5.82
5760.00,5.77
5759.00,5.73
5758.00,5.69
5757.00,5.64
5756.00,5.60
5755.00,5.56
5754.00,5.52
5753.00,5.48
5752.00,5.45
5751.00,5.42
5750.00,5.40
5749.00,5.37
5748.00,5.35
5747.00,5.33
5746.00,5.31
5745.00,5.30
5744.00,5.28
5743.00,5.27
5742.00,5.25
5741.00,5.24
5740.00,5.23
5739.00,5.22
5738.00,5.21
5737.00,5.21
5736.00,5.21
5735.00,5.22
5734.00,5.23
5733.00,5.24
5732.00,5.25
5731.00,5.26
5730.00,5.27
5729.00,5.28
5728.00,5.30
5727.00,5.31
5726.00,5.33
5725.00,5.35
5724.00,5.37
5723.00,5.39
5722.00,5.42
5721.00,5.46
5720.00,5.49
5719.00,5.53
5718.00,5.57
5717.00,5.60
5716.00,5.64
5715.00,5.68
5714.00,5.72
5713.00,5.77
5712.00,5.82
5711.00,5.88
5710.00,5.93
5709.00,5.99
5708.00,6.05
5707.00,6.12
5706.00,6.19
5705.00,6.26
5704.00,6.34
5703.00,6.42
5702.00,6.50
5701.00,6.58
5700.00,6.67
5699.00,6.76
5698.00,6.85
5697.00,6.95
5696.00,7.05
5695.00,7.16
5694.00,7.28
5693.00,7.39
5692.00,7.51
5691.00,7.63
5690.00,7.76
5689.00,7.89
5688.00,8.03
5687.00,8.18
5686.00,8.34
5685.00,8.50
5684.00,8.67
5683.00,8.84
5682.00,9.02
5681.00,9.20
5680.00,9.38
5679.00,9.57
5678.00,9.76
5677.00,9.96
5676.00,10.17
5675.00,10.39
5674.00,10.62
5673.00,10.85
5672.00,11.09
5671.00,11.33
5670.00,11.58
5669.00,11.84
5668.00,12.10
5667.00,12.36
5666.00,12.64
5665.00,12.92
5664.00,13.21
5663.00,13.50
5662.00,13.79
5661.00,14.09
5660.00,14.39
5659.00,14.69
5658.00,15.00
5657.00,15.31
5656.00,15.62
5655.00,15.94
5654.00,16.25
5653.00,16.56
5652.00,16.87
5651.00,17.17
5650.00,17.47
5649.00,17.76
5648.00,18.05
5647.00,18.33
5646.00,18.60
5645.00,18.86
5644.00,19.10
5643.00,19.34
5642.00,19.57
5641.00,19.79
5640.00,19.99
5639.00,20.18
5638.00,20.34
5637.00,20.49
5636.00,20.62
5635.00,20.73
5634.00,20.82
5633.00,20.90
5632.00,20.96
5631.00,21.00
5630.00,21.01
5629.00,21.00
5628.00,20.97
5627.00,20.92
5626.00,20.85
5625.00,20.75
5624.00,20.64
5623.00,20.52
5622.00,20.38
5621.00,20.22
5620.00,20.05
5619.00,19.86
5618.00,19.66
5617.00,19.45
5616.00,19.23
5615.00,18.99
5614.00,18.74
5613.00,18.48
5612.00,18.21
5611.00,17.94
5610.00,17.66
5609.00,17.38
5608.00,17.10
5607.00,16.82
5606.00,16.53
5605.00,16.25
5604.00,15.96
5603.00,15.67
5602.00,15.38
5601.00,15.09
5600.00,14.80
5599.00,14.51
5598.00,14.23
5597.00,13.95
5596.00,13.68
5595.00,13.40
5594.00,13.14
5593.00,12.87
5592.00,12.62
5591.00,12.37
5590.00,12.12
5589.00,11.88
5588.00,11.64
5587.00,11.41
5586.00,11.18
5585.00,10.96
5584.00,10.76
5583.00,10.55
5582.00,10.36
5581.00,10.16
5580.00,9.97
5579.00,9.79
5578.00,9.61
5577.00,9.43
5576.00,9.26
5575.00,9.09
5574.00,8.94
5573.00,8.78
5572.00,8.63
5571.00,8.48
5570.00,8.34
5569.00,8.19
5568.00,8.05
5567.00,7.91
5566.00,7.77
5565.00,7.64
5564.00,7.52
5563.00,7.41
5562.00,7.30
5561.00,7.19
5560.00,7.08
5559.00,6.98
5558.00,6.88
5557.00,6.78
5556.00,6.69
5555.00,6.60
5554.00,6.52
5553.00,6.43
5552.00,6.35
5551.00,6.27
5550.00,6.19
5549.00,6.12
5548.00,6.05
5547.00,5.98
5546.00,5.92
5545.00,5.86
5544.00,5.81
5543.00,5.76
5542.00,5.71
5541.00,5.66
5540.00,5.61
5539.00,5.56
5538.00,5.52
5537.00,5.47
5536.00,5.44
5535.00,5.40
5534.00,5.37
5533.00,5.33
5532.00,5.30
5531.00,5.28
5530.00,5.25
5529.00,5.23
5528.00,5.20
5527.00,5.18
5526.00,5.16
5525.00,5.14
5524.00,5.12
5523.00,5.11
5522.00,5.10
5521.00,5.09
5520.00,5.08
5519.00,5.08
5518.00,5.08
5517.00,5.07
5516.00,5.08
5515.00,5.08
5514.00,5.09
5513.00,5.09
5512.00,5.10
5511.00,5.11
5510.00,5.12
5509.00,5.13
5508.00,5.15
5507.00,5.17
5506.00,5.20
5505.00,5.22
5504.00,5.24
5503.00,5.26
5502.00,5.29
5501.00,5.32
5500.00,5.35
5499.00,5.39
5498.00,5.43
5497.00,5.46
5496.00,5.51
5495.00,5.56
5494.00,5.61
5493.00,5.66
5492.00,5.72
5491.00,5.77
5490.00,5.83
5489.00,5.89
5488.00,5.95
5487.00,6.02
5486.00,6.09
5485.00,6.17
5484.00,6.25
5483.00,6.33
5482.00,6.42
5481.00,6.51
5480.00,6.60
5479.00,6.70
5478.00,6.80
5477.00,6.91
5476.00,7.02
5475.00,7.13
5474.00,7.25
5473.00,7.38
5472.00,7.51
5471.00,7.65
5470.00,7.79
5469.00,7.94
5468.00,8.09
5467.00,8.25
5466.00,8.42
5465.00,8.59
5464.00,8.76
5463.00,8.95
5462.00,9.13
5461.00,9.33
5460.00,9.53
5459.00,9.74
5458.00,9.96
5457.00,10.19
5456.00,10.42
5455.00,10.66
5454.00,10.91
5453.00,11.16
5452.00,11.42
5451.00,11.69
5450.00,11.97
5449.00,12.25
5448.00,12.54
5447.00,12.84
5446.00,13.15
5445.00,13.47
5444.00,13.79
5443.00,14.11
5442.00,14.43
5441.00,14.75
5440.00,15.08
5439.00,15.40
5438.00,15.73
5437.00,16.06
5436.00,16.39
5435.00,16.71
5434.00,17.04
5433.00,17.36
5432.00,17.68
5431.00,18.00
5430.00,18.31
5429.00,18.60
5428.00,18.89
5427.00,19.16
5426.00,19.43
5425.00,19.67
5424.00,19.89
5423.00,20.09
5422.00,20.27
5421.00,20.44
5420.00,20.59
5419.00,20.72
5418.00,20.83
5417.00,20.91
5416.00,20.98
5415.00,21.03
5414.00,21.07
5413.00,21.08
5412.00,21.07
5411.00,21.04
5410.00,20.98
5409.00,20.89
5408.00,20.78
5407.00,20.64
5406.00,20.48
5405.00,20.29
5404.00,20.09
5403.00,19.87
5402.00,19.64
5401.00,19.40
5400.00,19.15
5399.00,18.89
5398.00,18.62
5397.00,18.34
5396.00,18.06
5395.00,17.77
5394.00,17.47
5393.00,17.16
5392.00,16.85
5391.00,16.54
5390.00,16.22
5389.00,15.90
5388.00,15.57
5387.00,15.24
5386.00,14.92
5385.00,14.59
5384.00,14.28
5383.00,13.97
5382.00,13.66
5381.00,13.36
5380.00,13.07
5379.00,12.78
5378.00,12.49
5377.00,12.20
5376.00,11.92
5375.00,11.65
5374.00,11.39
5373.00,11.13
5372.00,10.88
5371.00,10.63
5370.00,10.38
5369.00,10.14
5368.00,9.90
5367.00,9.68
5366.00,9.46
5365.00,9.25
5364.00,9.05
5363.00,8.85
5362.00,8.66
5361.00,8.47
5360.00,8.29
5359.00,8.12
5358.00,7.95
5357.00,7.80
5356.00,7.65
5355.00,7.50
5354.00,7.36
5353.00,7.22
5352.00,7.08
5351.00,6.95
5350.00,6.83
5349.00,6.71
5348.00,6.60
5347.00,6.49
5346.00,6.39
5345.00,6.29
5344.00,6.19
5343.00,6.09
5342.00,6.00
5341.00,5.92
5340.00,5.84
5339.00,5.76
5338.00,5.68
5337.00,5.61
5336.00,5.53
5335.00,5.46
5334.00,5.40
5333.00,5.33
5332.00,5.27
5331.00,5.21
5330.00,5.15
5329.00,5.10
5328.00,5.05
5327.00,5.01
5326.00,4.96
5325.00,4.92
5324.00,4.89
5323.00,4.85
5322.00,4.82
5321.00,4.79
5320.00,4.76
5319.00,4.73
5318.00,4.70
5317.00,4.67
5316.00,4.64
5315.00,4.62
5314.00,4.59
5313.00,4.57
5312.00,4.56
5311.00,4.54
5310.00,4.53
5309.00,4.52
5308.00,4.51
5307.00,4.51
5306.00,4.50
5305.00,4.50
5304.00,4.50
5303.00,4.50
5302.00,4.50
5301.00,4.50
5300.00,4.51
5299.00,4.51
5298.00,4.52
5297.00,4.53
5296.00,4.54
5295.00,4.55
5294.00,4.56
5293.00,4.58
5292.00,4.59
5291.00,4.61
5290.00,4.63
5289.00,4.66
5288.00,4.68
5287.00,4.71
5286.00,4.74
5285.00,4.77
5284.00,4.81
5283.00,4.84
5282.00,4.88
5281.00,4.92
5280.00,4.96
5279.00,5.01
5278.00,5.05
5277.00,5.10
5276.00,5.15
5275.00,5.20
5274.00,5.26
5273.00,5.32
5272.00,5.39
5271.00,5.45
5270.00,5.52
5269.00,5.59
5268.00,5.67
5267.00,5.75
5266.00,5.83
5265.00,5.92
5264.00,6.01
5263.00,6.10
5262.00,6.20
5261.00,6.30
5260.00,6.40
5259.00,6.51
5258.00,6.63
5257.00,6.74
5256.00,6.87
5255.00,7.00
5254.00,7.13
5253.00,7.27
5252.00,7.42
5251.00,7.58
5250.00,7.74
5249.00,7.90
5248.00,8.07
5247.00,8.25
5246.00,8.44
5245.00,8.63
5244.00,8.82
5243.00,9.03
5242.00,9.23
5241.00,9.45
5240.00,9.68
5239.00,9.91
5238.00,10.15
5237.00,10.40
5236.00,10.66
5235.00,10.92
5234.00,11.19
5233.00,11.48
5232.00,11.77
5231.00,12.07
5230.00,12.38
5229.00,12.69
5228.00,13.01
5227.00,13.34
5226.00,13.68
5225.00,14.02
5224.00,14.36
5223.00,14.71
5222.00,15.05
5221.00,15.40
5220.00,15.75
5219.00,16.10
5218.00,16.45
5217.00,16.80
5216.00,17.14
5215.00,17.48
5214.00,17.81
5213.00,18.13
5212.00,18.45
5211.00,18.76
5210.00,19.06
5209.00,19.35
5208.00,19.62
5207.00,19.88
5206.00,20.12
5205.00,20.35
5204.00,20.55
5203.00,20.72
5202.00,20.87
5201.00,20.99
5200.00,21.08
5199.00,21.15
5198.00,21.20
5197.00,21.21
5196.00,21.21
5195.00,21.18
5194.00,21.13
5193.00,21.05
5192.00,20.95
5191.00,20.82
5190.00,20.67
5189.00,20.50
5188.00,20.30
5187.00,20.09
5186.00,19.86
5185.00,19.61
5184.00,19.34
5183.00,19.07
5182.00,18.78
5181.00,18.48
5180.00,18.17
5179.00,17.84
5178.00,17.51
5177.00,17.18
5176.00,16.84
5175.00,16.51
5174.00,16.16
5173.00,15.82
5172.00,15.47
5171.00,15.13
5170.00,14.79
5169.00,14.46
5168.00,14.13
5167.00,13.80
5166.00,13.48
5165.00,13.16
5164.00,12.84
5163.00,12.53
5162.00,12.23
5161.00,11.93
5160.00,11.65
5159.00,11.37
5158.00,11.09
5157.00,10.81
5156.00,10.55
5155.00,10.29
5154.00,10.03
5153.00,9.79
5152.00,9.55
5151.00,9.33
5150.00,9.11
5149.00,8.89
5148.00,8.68
5147.00,8.48
5146.00,8.29
5145.00,8.09
5144.00,7.91
5143.00,7.73
5142.00,7.56
5141.00,7.40
5140.00,7.24
5139.00,7.09
5138.00,6.94
5137.00,6.80
5136.00,6.66
5135.00,6.53
5134.00,6.41
5133.00,6.29
5132.00,6.18
5131.00,6.07
5130.00,5.96
5129.00,5.86
5128.00,5.76
5127.00,5.66
5126.00,5.57
5125.00,5.48
5124.00,5.39
5123.00,5.31
5122.00,5.24
5121.00,5.17
5120.00,5.10
5119.00,5.04
5118.00,4.97
5117.00,4.91
5116.00,4.84
5115.00,4.79
5114.00,4.73
5113.00,4.68
5112.00,4.63
5111.00,4.59
5110.00,4.54
5109.00,4.50
5108.00,4.46
5107.00,4.42
5106.00,4.39
5105.00,4.35
5104.00,4.32
5103.00,4.29
5102.00,4.26
5101.00,4.23
5100.00,4.21
5099.00,4.19
5098.00,4.17
5097.00,4.15
5096.00,4.13
5095.00,4.12
5094.00,4.10
5093.00,4.09
5092.00,4.08
5091.00,4.07
5090.00,4.06
5089.00,4.05
5088.00,4.05
5087.00,4.04
5086.00,4.04
5085.00,4.04
5084.00,4.05
5083.00,4.05
5082.00,4.06
5081.00,4.07
5080.00,4.08
5079.00,4.09
5078.00,4.09
5077.00,4.10
5076.00,4.11
5075.00,4.13
5074.00,4.14
5073.00,4.16
5072.00,4.19
5071.00,4.21
5070.00,4.24
5069.00,4.27
5068.00,4.29
5067.00,4.32
5066.00,4.35
5065.00,4.39
5064.00,4.42
5063.00,4.46
5062.00,4.50
5061.00,4.54
5060.00,4.58
5059.00,4.63
5058.00,4.68
5057.00,4.73
5056.00,4.78
5055.00,4.84
5054.00,4.90
5053.00,4.97
5052.00,5.04
5051.00,5.11
5050.00,5.18
5049.00,5.25
5048.00,5.33
5047.00,5.41
5046.00,5.50
5045.00,5.59
5044.00,5.68
5043.00,5.78
5042.00,5.88
5041.00,5.98
5040.00,6.09
5039.00,6.21
5038.00,6.33
5037.00,6.46
5036.00,6.59
5035.00,6.73
5034.00,6.87
5033.00,7.02
5032.00,7.18
5031.00,7.34
5030.00,7.51
5029.00,7.69
5028.00,7.88
5027.00,8.07
5026.00,8.27
5025.00,8.47
5024.00,8.68
5023.00,8.90
5022.00,9.13
5021.00,9.38
5020.00,9.63
5019.00,9.89
5018.00,10.15
5017.00,10.43
5016.00,10.71
5015.00,11.00
5014.00,11.30
5013.00,11.61
5012.00,11.92
5011.00,12.25
5010.00,12.58
5009.00,12.92
5008.00,13.27
5007.00,13.62
5006.00,13.98
5005.00,14.34
5004.00,14.70
5003.00,15.06
5002.00,15.43
5001.00,15.80
5000.00,16.16
4999.00,16.52
4998.00,16.87
4997.00,17.22
4996.00,17.56
4995.00,17.90
4994.00,18.22
4993.00,18.52
4992.00,18.81
4991.00,19.08
4990.00,19.34
4989.00,19.57
4988.00,19.78
4987.00,19.97
4986.00,20.14
4985.00,20.28
4984.00,20.39
4983.00,20.48
4982.00,20.54
4981.00,20.57
4980.00,20.57
4979.00,20.54
4978.00,20.49
4977.00,20.41
4976.00,20.30
4975.00,20.17
4974.00,20.01
4973.00,19.83
4972.00,19.63
4971.00,19.41
4970.00,19.17
4969.00,18.91
4968.00,18.63
4967.00,18.34
4966.00,18.04
4965.00,17.72
4964.00,17.40
4963.00,17.07
4962.00,16.73
4961.00,16.39
4960.00,16.04
4959.00,15.69
4958.00,15.34
4957.00,14.98
4956.00,14.63
4955.00,14.28
4954.00,13.93
4953.00,13.58
4952.00,13.24
4951.00,12.90
4950.00,12.57
4949.00,12.24
4948.00,11.92
4947.00,11.61
4946.00,11.31
4945.00,11.01
4944.00,10.72
4943.00,10.44
4942.00,10.16
4941.00,9.89
4940.00,9.63
4939.00,9.38
4938.00,9.13
4937.00,8.90
4936.00,8.67
4935.00,8.45
4934.00,8.23
4933.00,8.02
4932.00,7.82
4931.00,7.63
4930.00,7.44
4929.00,7.26
4928.00,7.09
4927.00,6.93
4926.00,6.77
4925.00,6.61
4924.00,6.46
4923.00,6.32
4922.00,6.18
4921.00,6.05
4920.00,5.93
4919.00,5.81
4918.00,5.69
4917.00,5.58
4916.00,5.47
4915.00,5.37
4914.00,5.28
4913.00,5.18
4912.00,5.09
4911.00,5.00
4910.00,4.92
4909.00,4.84
4908.00,4.77
4907.00,4.69
4906.00,4.63
4905.00,4.56
4904.00,4.50
4903.00,4.44
4902.00,4.39
4901.00,4.33
4900.00,4.28
4899.00,4.23
4898.00,4.18
4897.00,4.14
4896.00,4.09
4895.00,4.05
4894.00,4.01
4893.00,3.98
4892.00,3.94
4891.00,3.91
4890.00,3.88
4889.00,3.85
4888.00,3.82
4887.00,3.79
4886.00,3.77
4885.00,3.74
4884.00,3.72
4883.00,3.70
4882.00,3.69
4881.00,3.67
4880.00,3.65
4879.00,3.64
4878.00,3.63
4877.00,3.62
4876.00,3.61
4875.00,3.60
4874.00,3.60
4873.00,3.59
4872.00,3.59
4871.00,3.58
4870.00,3.58
4869.00,3.59
4868.00,3.59
4867.00,3.60
4866.00,3.61
4865.00,3.61
4864.00,3.62
4863.00,3.63
4862.00,3.64
4861.00,3.65
4860.00,3.66
4859.00,3.67
4858.00,3.69
4857.00,3.71
4856.00,3.73
4855.00,3.75
4854.00,3.78
4853.00,3.80
4852.00,3.82
4851.00,3.85
4850.00,3.88
4849.00,3.91
4848.00,3.94
4847.00,3.98
4846.00,4.01
4845.00,4.05
4844.00,4.09
4843.00,4.14
4842.00,4.18
4841.00,4.23
4840.00,4.28
4839.00,4.34
4838.00,4.40
4837.00,4.45
4836.00,4.51
4835.00,4.58
4834.00,4.64
4833.00,4.71
4832.00,4.79
4831.00,4.86
4830.00,4.95
4829.00,5.03
4828.00,5.12
4827.00,5.21
4826.00,5.30
4825.00,5.40
4824.00,5.50
4823.00,5.61
4822.00,5.73
4821.00,5.84
4820.00,5.97
4819.00,6.10
4818.00,6.23
4817.00,6.37
4816.00,6.52
4815.00,6.68
4814.00,6.84
4813.00,7.01
4812.00,7.19
4811.00,7.38
4810.00,7.57
4809.00,7.77
4808.00,7.98
4807.00,8.20
4806.00,8.43
4805.00,8.67
4804.00,8.92
4803.00,9.17
4802.00,9.44
4801.00,9.71
4800.00,10.00
4799.00,10.29
4798.00,10.60
4797.00,10.91
4796.00,11.24
4795.00,11.57
4794.00,11.92
4793.00,12.27
4792.00,12.63
4791.00,13.00
4790.00,13.38
4789.00,13.76
4788.00,14.15
4787.00,14.54
4786.00,14.93
4785.00,15.32
4784.00,15.72
4783.00,16.11
4782.00,16.50
4781.00,16.89
4780.00,17.26
4779.00,17.63
4778.00,17.98
4777.00,18.32
4776.00,18.64
4775.00,18.94
4774.00,19.23
4773.00,19.49
4772.00,19.73
4771.00,19.94
4770.00,20.12
4769.00,20.28
4768.00,20.40
4767.00,20.50
4766.00,20.56
4765.00,20.60
4764.00,20.59
4763.00,20.56
4762.00,20.49
4761.00,20.39
4760.00,20.26
4759.00,20.11
4758.00,19.93
4757.00,19.72
4756.00,19.49
4755.00,19.23
4754.00,18.96
4753.00,18.66
4752.00,18.35
4751.00,18.02
4750.00,17.68
4749.00,17.33
4748.00,16.98
4747.00,16.62
4746.00,16.25
4745.00,15.88
4744.00,15.50
4743.00,15.12
4742.00,14.74
4741.00,14.36
4740.00,13.98
4739.00,13.61
4738.00,13.25
4737.00,12.89
4736.00,12.53
4735.00,12.18
4734.00,11.84
4733.00,11.50
4732.00,11.17
4731.00,10.85
4730.00,10.54
4729.00,10.23
4728.00,9.94
4727.00,9.65
4726.00,9.37
4725.00,9.10
4724.00,8.84
4723.00,8.59
4722.00,8.34
4721.00,8.11
4720.00,7.88
4719.00,7.67
4718.00,7.46
4717.00,7.26
4716.00,7.06
4715.00,6.88
4714.00,6.70
4713.00,6.53
4712.00,6.36
4711.00,6.20
4710.00,6.05
4709.00,5.91
4708.00,5.77
4707.00,5.64
4706.00,5.51
4705.00,5.39
4704.00,5.27
4703.00,5.16
4702.00,5.05
4701.00,4.95
4700.00,4.86
4699.00,4.76
4698.00,4.68
4697.00,4.59
4696.00,4.51
4695.00,4.43
4694.00,4.35
4693.00,4.28
4692.00,4.20
4691.00,4.14
4690.00,4.07
4689.00,4.01
4688.00,3.95
4687.00,3.90
4686.00,3.85
4685.00,3.79
4684.00,3.74
4683.00,3.70
4682.00,3.65
4681.00,3.61
4680.00,3.57
4679.00,3.53
4678.00,3.50
4677.00,3.47
4676.00,3.44
4675.00,3.41
4674.00,3.38
4673.00,3.35
4672.00,3.33
4671.00,3.31
4670.00,3.29
4669.00,3.27
4668.00,3.25
4667.00,3.23
4666.00,3.22
4665.00,3.20
4664.00,3.19
4663.00,3.17
4662.00,3.16
4661.00,3.15
4660.00,3.14
4659.00,3.14
4658.00,3.13
4657.00,3.13
4656.00,3.13
4655.00,3.12
4654.00,3.12
4653.00,3.12
4652.00,3.12
4651.00,3.12
4650.00,3.13
4649.00,3.13
4648.00,3.14
4647.00,3.15
4646.00,3.16
4645.00,3.17
4644.00,3.18
4643.00,3.19
4642.00,3.20
4641.00,3.22
4640.00,3.23
4639.00,3.25
4638.00,3.27
4637.00,3.29
4636.00,3.31
4635.00,3.33
4634.00,3.36
4633.00,3.38
4632.00,3.41
4631.00,3.44
4630.00,3.47
4629.00,3.50
4628.00,3.54
4627.00,3.58
4626.00,3.62
4625.00,3.66
4624.00,3.70
4623.00,3.75
4622.00,3.79
4621.00,3.84
4620.00,3.90
4619.00,3.95
4618.00,4.01
4617.00,4.07
4616.00,4.13
4615.00,4.20
4614.00,4.27
4613.00,4.34
4612.00,4.42
4611.00,4.49
4610.00,4.58
4609.00,4.66
4608.00,4.76
4607.00,4.85
4606.00,4.96
4605.00,5.06
4604.00,5.18
4603.00,5.29
4602.00,5.41
4601.00,5.54
4600.00,5.67
4599.00,5.80
4598.00,5.95
4597.00,6.10
4596.00,6.26
4595.00,6.43
4594.00,6.60
4593.00,6.79
4592.00,6.98
4591.00,7.17
4590.00,7.38
4589.00,7.60
4588.00,7.83
4587.00,8.07
4586.00,8.32
4585.00,8.58
4584.00,8.85
4583.00,9.13
4582.00,9.42
4581.00,9.72
4580.00,10.04
4579.00,10.36
4578.00,10.70
4577.00,11.05
4576.00,11.40
4575.00,11.77
4574.00,12.14
4573.00,12.52
4572.00,12.91
4571.00,13.31
4570.00,13.71
4569.00,14.12
4568.00,14.53
4567.00,14.94
4566.00,15.34
4565.00,15.74
4564.00,16.14
4563.00,16.53
4562.00,16.91
4561.00,17.28
4560.00,17.63
4559.00,17.96
4558.00,18.27
4557.00,18.56
4556.00,18.83
4555.00,19.07
4554.00,19.28
4553.00,19.46
4552.00,19.60
4551.00,19.71
4550.00,19.79
4549.00,19.83
4548.00,19.83
4547.00,19.80
4546.00,19.73
4545.00,19.63
4544.00,19.50
4543.00,19.34
4542.00,19.15
4541.00,18.93
4540.00,18.68
4539.00,18.41
4538.00,18.12
4537.00,17.81
4536.00,17.48
4535.00,17.14
4534.00,16.79
4533.00,16.42
4532.00,16.04
4531.00,15.67
4530.00,15.28
4529.00,14.89
4528.00,14.50
4527.00,14.11
4526.00,13.72
4525.00,13.34
4524.00,12.95
4523.00,12.58
4522.00,12.21
4521.00,11.84
4520.00,11.48
4519.00,11.13
4518.00,10.79
4517.00,10.46
4516.00,10.13
4515.00,9.82
4514.00,9.51
4513.00,9.21
4512.00,8.92
4511.00,8.64
4510.00,8.37
4509.00,8.12
4508.00,7.87
4507.00,7.63
4506.00,7.40
4505.00,7.18
4504.00,6.97
4503.00,6.76
4502.00,6.57
4501.00,6.38
4500.00,6.20
4499.00,6.03
4498.00,5.86
4497.00,5.71
4496.00,5.56
4495.00,5.41
4494.00,5.28
4493.00,5.14
4492.00,5.02
4491.00,4.90
4490.00,4.78
4489.00,4.67
4488.00,4.57
4487.00,4.47
4486.00,4.37
4485.00,4.28
4484.00,4.20
4483.00,4.11
4482.00,4.03
4481.00,3.95
4480.00,3.88
4479.00,3.81
4478.00,3.74
4477.00,3.68
4476.00,3.62
4475.00,3.56
4474.00,3.51
4473.00,3.46
4472.00,3.41
4471.00,3.36
4470.00,3.32
4469.00,3.27
4468.00,3.23
4467.00,3.19
4466.00,3.15
4465.00,3.12
4464.00,3.08
4463.00,3.05
4462.00,3.02
4461.00,2.99
4460.00,2.97
4459.00,2.94
4458.00,2.92
4457.00,2.89
4456.00,2.87
4455.00,2.85
4454.00,2.83
4453.00,2.81
4452.00,2.80
4451.00,2.78
4450.00,2.77
4449.00,2.76
4448.00,2.74
4447.00,2.73
4446.00,2.72
4445.00,2.72
4444.00,2.71
4443.00,2.70
4442.00,2.70
4441.00,2.70
4440.00,2.70
4439.00,2.69
4438.00,2.69
4437.00,2.70
4436.00,2.70
4435.00,2.70
4434.00,2.70
4433.00,2.71
4432.00,2.72
4431.00,2.72
4430.00,2.73
4429.00,2.74
4428.00,2.74
4427.00,2.76
4426.00,2.77
4425.00,2.78
4424.00,2.80
4423.00,2.82
4422.00,2.84
4421.00,2.86
4420.00,2.88
4419.00,2.90
4418.00,2.92
4417.00,2.95
4416.00,2.97
4415.00,3.00
4414.00,3.03
4413.00,3.07
4412.00,3.10
4411.00,3.14
4410.00,3.17
4409.00,3.21
4408.00,3.25
4407.00,3.29
4406.00,3.33
4405.00,3.38
4404.00,3.43
4403.00,3.48
4402.00,3.53
4401.00,3.59
4400.00,3.64
4399.00,3.70
4398.00,3.77
4397.00,3.83
4396.00,3.91
4395.00,3.98
4394.00,4.05
4393.00,4.13
4392.00,4.22
4391.00,4.30
4390.00,4.39
4389.00,4.49
4388.00,4.59
4387.00,4.70
4386.00,4.80
4385.00,4.91
4384.00,5.03
4383.00,5.15
4382.00,5.27
4381.00,5.40
4380.00,5.54
4379.00,5.68
4378.00,5.83
4377.00,5.98
4376.00,6.14
4375.00,6.31
4374.00,6.48
4373.00,6.66
4372.00,6.85
4371.00,7.05
4370.00,7.26
4369.00,7.47
4368.00,7.69
4367.00,7.92
4366.00,8.16
4365.00,8.41
4364.00,8.67
4363.00,8.94
4362.00,9.21
4361.00,9.50
4360.00,9.81
4359.00,10.12
4358.00,10.44
4357.00,10.77
4356.00,11.11
4355.00,11.46
4354.00,11.81
4353.00,12.17
4352.00,12.53
4351.00,12.89
4350.00,13.26
4349.00,13.62
4348.00,13.98
4347.00,14.34
4346.00,14.69
4345.00,15.03
4344.00,15.36
4343.00,15.68
4342.00,15.99
4341.00,16.28
4340.00,16.56
4339.00,16.81
4338.00,17.05
4337.00,17.26
4336.00,17.44
4335.00,17.58
4334.00,17.70
4333.00,17.77
4332.00,17.82
4331.00,17.82
4330.00,17.79
4329.00,17.71
4328.00,17.60
4327.00,17.46
4326.00,17.28
4325.00,17.06
4324.00,16.83
4323.00,16.56
4322.00,16.27
4321.00,15.96
4320.00,15.64
4319.00,15.30
4318.00,14.95
4317.00,14.59
4316.00,14.22
4315.00,13.85
4314.00,13.48
4313.00,13.11
4312.00,12.74
4311.00,12.37
4310.00,12.01
4309.00,11.65
4308.00,11.29
4307.00,10.94
4306.00,10.60
4305.00,10.26
4304.00,9.94
4303.00,9.62
4302.00,9.30
4301.00,9.00
4300.00,8.71
4299.00,8.42
4298.00,8.14
4297.00,7.87
4296.00,7.61
4295.00,7.36
4294.00,7.12
4293.00,6.89
4292.00,6.67
4291.00,6.46
4290.00,6.26
4289.00,6.06
4288.00,5.88
4287.00,5.70
4286.00,5.53
4285.00,5.37
4284.00,5.22
4283.00,5.07
4282.00,4.94
4281.00,4.81
4280.00,4.68
4279.00,4.56
4278.00,4.45
4277.00,4.34
4276.00,4.24
4275.00,4.14
4274.00,4.05
4273.00,3.96
4272.00,3.87
4271.00,3.79
4270.00,3.70
4269.00,3.63
4268.00,3.55
4267.00,3.48
4266.00,3.42
4265.00,3.35
4264.00,3.29
4263.00,3.23
4262.00,3.17
4261.00,3.12
4260.00,3.07
4259.00,3.02
4258.00,2.98
4257.00,2.93
4256.00,2.89
4255.00,2.85
4254.00,2.81
4253.00,2.77
4252.00,2.74
4251.00,2.70
4250.00,2.67
4249.00,2.64
4248.00,2.61
4247.00,2.58
4246.00,2.55
4245.00,2.52
4244.00,2.50
4243.00,2.48
4242.00,2.45
4241.00,2.43
4240.00,2.41
4239.00,2.40
4238.00,2.38
4237.00,2.37
4236.00,2.35
4235.00,2.34
4234.00,2.32
4233.00,2.31
4232.00,2.30
4231.00,2.29
4230.00,2.28
4229.00,2.27
4228.00,2.26
4227.00,2.26
4226.00,2.25
4225.00,2.25
4224.00,2.25
4223.00,2.24
4222.00,2.24
4221.00,2.24
4220.00,2.24
4219.00,2.24
4218.00,2.24
4217.00,2.25
4216.00,2.25
4215.00,2.25
4214.00,2.26
4213.00,2.26
4212.00,2.27
4211.00,2.28
4210.00,2.28
4209.00,2.29
4208.00,2.31
4207.00,2.32
4206.00,2.34
4205.00,2.35
4204.00,2.37
4203.00,2.38
4202.00,2.40
4201.00,2.42
4200.00,2.44
4199.00,2.46
4198.00,2.49
4197.00,2.51
4196.00,2.54
4195.00,2.56
4194.00,2.59
4193.00,2.62
4192.00,2.65
4191.00,2.69
4190.00,2.72
4189.00,2.76
4188.00,2.80
4187.00,2.84
4186.00,2.88
4185.00,2.92
4184.00,2.97
4183.00,3.01
4182.00,3.07
4181.00,3.12
4180.00,3.17
4179.00,3.23
4178.00,3.29
4177.00,3.36
4176.00,3.43
4175.00,3.50
4174.00,3.57
4173.00,3.65
4172.00,3.73
4171.00,3.82
4170.00,3.91
4169.00,4.00
4168.00,4.10
4167.00,4.20
4166.00,4.31
4165.00,4.43
4164.00,4.55
4163.00,4.68
4162.00,4.81
4161.00,4.95
4160.00,5.10
4159.00,5.26
4158.00,5.42
4157.00,5.59
4156.00,5.77
4155.00,5.96
4154.00,6.16
4153.00,6.36
4152.00,6.58
4151.00,6.81
4150.00,7.05
4149.00,7.30
4148.00,7.56
4147.00,7.83
4146.00,8.12
4145.00,8.42
4144.00,8.72
4143.00,9.04
4142.00,9.38
4141.00,9.72
4140.00,10.07
4139.00,10.44
4138.00,10.82
4137.00,11.20
4136.00,11.59
4135.00,11.98
4134.00,12.38
4133.00,12.78
4132.00,13.18
4131.00,13.57
4130.00,13.95
4129.00,14.32
4128.00,14.68
4127.00,15.02
4126.00,15.35
4125.00,15.66
4124.00,15.95
4123.00,16.22
4122.00,16.46
4121.00,16.66
4120.00,16.84
4119.00,16.98
4118.00,17.08
4117.00,17.14
4116.00,17.17
4115.00,17.15
4114.00,17.10
4113.00,17.01
4112.00,16.88
4111.00,16.72
4110.00,16.53
4109.00,16.30
4108.00,16.05
4107.00,15.77
4106.00,15.48
4105.00,15.16
4104.00,14.83
4103.00,14.49
4102.00,14.13
4101.00,13.76
4100.00,13.39
4099.00,13.02
4098.00,12.64
4097.00,12.26
4096.00,11.87
4095.00,11.49
4094.00,11.12
4093.00,10.75
4092.00,10.38
4091.00,10.03
4090.00,9.68
4089.00,9.34
4088.00,9.00
4087.00,8.68
4086.00,8.37
4085.00,8.07
4084.00,7.78
4083.00,7.51
4082.00,7.24
4081.00,6.98
4080.00,6.74
4079.00,6.50
4078.00,6.28
4077.00,6.06
4076.00,5.86
4075.00,5.66
4074.00,5.47
4073.00,5.29
4072.00,5.12
4071.00,4.95
4070.00,4.79
4069.00,4.64
4068.00,4.50
4067.00,4.37
4066.00,4.24
4065.00,4.11
4064.00,3.99
4063.00,3.88
4062.00,3.78
4061.00,3.67
4060.00,3.58
4059.00,3.48
4058.00,3.40
4057.00,3.32
4056.00,3.24
4055.00,3.16
4054.00,3.09
4053.00,3.02
4052.00,2.95
4051.00,2.89
4050.00,2.83
4049.00,2.77
4048.00,2.72
4047.00,2.67
4046.00,2.62
4045.00,2.58
4044.00,2.53
4043.00,2.49
4042.00,2.45
4041.00,2.41
4040.00,2.38
4039.00,2.34
4038.00,2.31
4037.00,2.28
4036.00,2.25
4035.00,2.22
4034.00,2.20
4033.00,2.17
4032.00,2.14
4031.00,2.12
4030.00,2.10
4029.00,2.08
4028.00,2.06
4027.00,2.04
4026.00,2.02
4025.00,2.01
4024.00,1.99
4023.00,1.98
4022.00,1.96
4021.00,1.95
4020.00,1.94
4019.00,1.92
4018.00,1.91
4017.00,1.90
4016.00,1.89
4015.00,1.89
4014.00,1.88
4013.00,1.88
4012.00,1.87
4011.00,1.87
4010.00,1.86
4009.00,1.86
4008.00,1.86
4007.00,1.86
4006.00,1.86
4005.00,1.86
4004.00,1.86
4003.00,1.86
4002.00,1.86
4001.00,1.87
4000.00,1.87
3999.00,1.88
3998.00,1.88
3997.00,1.89
3996.00,1.89
3995.00,1.90
3994.00,1.91
3993.00,1.92
3992.00,1.93
3991.00,1.94
3990.00,1.95
3989.00,1.97
3988.00,1.98
3987.00,2.00
3986.00,2.01
3985.00,2.03
3984.00,2.05
3983.00,2.06
3982.00,2.08
3981.00,2.11
3980.00,2.13
3979.00,2.15
3978.00,2.18
3977.00,2.21
3976.00,2.23
3975.00,2.26
3974.00,2.29
3973.00,2.32
3972.00,2.36
3971.00,2.40
3970.00,2.43
3969.00,2.47
3968.00,2.52
3967.00,2.56
3966.00,2.60
3965.00,2.65
3964.00,2.70
3963.00,2.75
3962.00,2.81
3961.00,2.87
3960.00,2.93
3959.00,2.99
3958.00,3.06
3957.00,3.13
3956.00,3.20
3955.00,3.28
3954.00,3.35
3953.00,3.44
3952.00,3.53
3951.00,3.62
3950.00,3.72
3949.00,3.82
3948.00,3.93
3947.00,4.04
3946.00,4.16
3945.00,4.29
3944.00,4.42
3943.00,4.57
3942.00,4.72
3941.00,4.87
3940.00,5.04
3939.00,5.22
3938.00,5.40
3937.00,5.60
3936.00,5.81
3935.00,6.03
3934.00,6.26
3933.00,6.50
3932.00,6.76
3931.00,7.03
3930.00,7.31
3929.00,7.61
3928.00,7.92
3927.00,8.24
3926.00,8.59
3925.00,8.95
3924.00,9.32
3923.00,9.71
3922.00,10.11
3921.00,10.52
3920.00,10.95
3919.00,11.39
3918.00,11.84
3917.00,12.30
3916.00,12.76
3915.00,13.22
3914.00,13.68
3913.00,14.12
3912.00,14.55
3911.00,14.96
3910.00,15.35
3909.00,15.71
3908.00,16.03
3907.00,16.32
3906.00,16.57
3905.00,16.78
3904.00,16.96
3903.00,17.11
3902.00,17.21
3901.00,17.27
3900.00,17.28
3899.00,17.24
3898.00,17.14
3897.00,16.99
3896.00,16.79
3895.00,16.54
3894.00,16.25
3893.00,15.92
3892.00,15.56
3891.00,15.18
3890.00,14.80
3889.00,14.42
3888.00,14.03
3887.00,13.62
3886.00,13.18
3885.00,12.73
3884.00,12.30
3883.00,11.88
3882.00,11.47
3881.00,11.04
3880.00,10.61
3879.00,10.19
3878.00,9.80
3877.00,9.43
3876.00,9.08
3875.00,8.73
3874.00,8.38
3873.00,8.06
3872.00,7.74
3871.00,7.44
3870.00,7.13
3869.00,6.82
3868.00,6.54
3867.00,6.28
3866.00,6.04
3865.00,5.80
3864.00,5.57
3863.00,5.35
3862.00,5.14
3861.00,4.94
3860.00,4.76
3859.00,4.59
3858.00,4.43
3857.00,4.29
3856.00,4.16
3855.00,4.04
3854.00,3.90
3853.00,3.77
3852.00,3.63
3851.00,3.50
3850.00,3.39
3849.00,3.28
3848.00,3.18
3847.00,3.09
3846.00,3.01
3845.00,2.93
3844.00,2.85
3843.00,2.78
3842.00,2.71
3841.00,2.64
3840.00,2.58
3839.00,2.52
3838.00,2.46
3837.00,2.41
3836.00,2.35
3835.00,2.30
3834.00,2.26
3833.00,2.21
3832.00,2.17
3831.00,2.12
3830.00,2.08
3829.00,2.05
3828.00,2.01
3827.00,1.98
3826.00,1.95
3825.00,1.92
3824.00,1.89
3823.00,1.86
3822.00,1.84
3821.00,1.81
3820.00,1.79
3819.00,1.77
3818.00,1.74
3817.00,1.72
3816.00,1.70
3815.00,1.69
3814.00,1.67
3813.00,1.66
3812.00,1.64
3811.00,1.63
3810.00,1.61
3809.00,1.60
3808.00,1.58
3807.00,1.57
3806.00,1.56
3805.00,1.55
3804.00,1.55
3803.00,1.54
3802.00,1.53
3801.00,1.52
3800.00,1.51
3799.00,1.51
3798.00,1.50
3797.00,1.50
3796.00,1.49
3795.00,1.49
3794.00,1.49
3793.00,1.48
3792.00,1.48
3791.00,1.48
3790.00,1.48
3789.00,1.48
3788.00,1.49
3787.00,1.49
3786.00,1.49
3785.00,1.49
3784.00,1.49
3783.00,1.50
3782.00,1.50
3781.00,1.51
3780.00,1.51
3779.00,1.52
3778.00,1.53
3777.00,1.54
3776.00,1.55
3775.00,1.56
3774.00,1.57
3773.00,1.58
3772.00,1.59
3771.00,1.60
3770.00,1.61
3769.00,1.63
3768.00,1.64
3767.00,1.66
3766.00,1.68
3765.00,1.69
3764.00,1.71
3763.00,1.73
3762.00,1.76
3761.00,1.78
3760.00,1.80
3759.00,1.83
3758.00,1.85
3757.00,1.88
3756.00,1.91
3755.00,1.94
3754.00,1.97
3753.00,2.01
3752.00,2.05
3751.00,2.09
3750.00,2.14
3749.00,2.18
3748.00,2.23
3747.00,2.28
3746.00,2.33
3745.00,2.38
3744.00,2.44
3743.00,2.51
3742.00,2.57
3741.00,2.64
3740.00,2.70
3739.00,2.76
3738.00,2.83
3737.00,2.91
3736.00,2.99
3735.00,3.09
3734.00,3.19
3733.00,3.29
3732.00,3.40
3731.00,3.52
3730.00,3.65
3729.00,3.78
3728.00,3.91
3727.00,4.06
3726.00,4.21
3725.00,4.38
3724.00,4.55
3723.00,4.74
3722.00,4.94
3721.00,5.16
3720.00,5.39
3719.00,5.64
3718.00,5.90
3717.00,6.18
3716.00,6.47
3715.00,6.78
3714.00,7.11
3713.00,7.46
3712.00,7.85
3711.00,8.27
3710.00,8.70
3709.00,9.15
3708.00,9.60
3707.00,10.06
3706.00,10.52
3705.00,10.99
3704.00,11.45
3703.00,11.92
3702.00,12.38
3701.00,12.83
3700.00,13.27
3699.00,13.67
3698.00,14.04
3697.00,14.37
3696.00,14.65
3695.00,14.88
3694.00,15.06
3693.00,15.20
3692.00,15.30
3691.00,15.36
3690.00,15.38
3689.00,15.38
3688.00,15.35
3687.00,15.30
3686.00,15.22
3685.00,15.09
3684.00,14.89
3683.00,14.63
3682.00,14.32
3681.00,13.99
3680.00,13.63
3679.00,13.25
3678.00,12.85
3677.00,12.44
3676.00,11.99
3675.00,11.52
3674.00,11.08
3673.00,10.67
3672.00,10.27
3671.00,9.85
3670.00,9.41
3669.00,8.97
3668.00,8.56
3667.00,8.18
3666.00,7.81
3665.00,7.47
3664.00,7.13
3663.00,6.82
3662.00,6.51
3661.00,6.22
3660.00,5.95
3659.00,5.69
3658.00,5.44
3657.00,5.20
3656.00,4.97
3655.00,4.75
3654.00,4.55
3653.00,4.37
3652.00,4.21
3651.00,4.04
3650.00,3.88
3649.00,3.73
3648.00,3.57
3647.00,3.43
3646.00,3.29
3645.00,3.17
3644.00,3.07
3643.00,2.97
3642.00,2.87
3641.00,2.78
3640.00,2.70
3639.00,2.61
3638.00,2.53
3637.00,2.46
3636.00,2.39
3635.00,2.32
3634.00,2.26
3633.00,2.20
3632.00,2.15
3631.00,2.09
3630.00,2.04
3629.00,2.00
3628.00,1.95
3627.00,1.90
3626.00,1.86
3625.00,1.82
3624.00,1.79
3623.00,1.75
3622.00,1.71
3621.00,1.68
3620.00,1.65
3619.00,1.62
3618.00,1.59
3617.00,1.57
3616.00,1.54
3615.00,1.52
3614.00,1.50
3613.00,1.48
3612.00,1.46
3611.00,1.44
3610.00,1.42
3609.00,1.41
3608.00,1.39
3607.00,1.38
3606.00,1.37
3605.00,1.35
3604.00,1.34
3603.00,1.32
3602.00,1.31
3601.00,1.30
3600.00,1.29
3599.00,1.28
3598.00,1.27
3597.00,1.26
3596.00,1.25
3595.00,1.24
3594.00,1.23
3593.00,1.22
3592.00,1.21
3591.00,1.20
3590.00,1.20
3589.00,1.20
3588.00,1.19
3587.00,1.19
3586.00,1.19
3585.00,1.19
3584.00,1.19
3583.00,1.19
3582.00,1.19
3581.00,1.19
3580.00,1.19
3579.00,1.19
3578.00,1.20
3577.00,1.20
3576.00,1.20
3575.00,1.20
3574.00,1.20
3573.00,1.20
3572.00,1.20
3571.00,1.20
3570.00,1.20
3569.00,1.20
3568.00,1.20
3567.00,1.20
3566.00,1.20
3565.00,1.20
3564.00,1.20
3563.00,1.20
3562.00,1.21
3561.00,1.21
3560.00,1.22
3559.00,1.22
3558.00,1.23
3557.00,1.24
3556.00,1.25
3555.00,1.26
3554.00,1.27
3553.00,1.28
3552.00,1.29
3551.00,1.30
3550.00,1.32
3549.00,1.33
3548.00,1.35
3547.00,1.36
3546.00,1.38
3545.00,1.40
3544.00,1.41
3543.00,1.43
3542.00,1.46
3541.00,1.48
3540.00,1.50
3539.00,1.52
3538.00,1.55
3537.00,1.58
3536.00,1.61
3535.00,1.64
3534.00,1.67
3533.00,1.70
3532.00,1.74
3531.00,1.77
3530.00,1.81
3529.00,1.85
3528.00,1.89
3527.00,1.94
3526.00,1.99
3525.00,2.04
3524.00,2.09
3523.00,2.15
3522.00,2.21
3521.00,2.27
3520.00,2.33
3519.00,2.40
3518.00,2.47
3517.00,2.55
3516.00,2.63
3515.00,2.72
3514.00,2.81
3513.00,2.90
3512.00,3.00
3511.00,3.11
3510.00,3.23
3509.00,3.35
3508.00,3.48
3507.00,3.61
3506.00,3.76
3505.00,3.91
3504.00,4.07
3503.00,4.25
3502.00,4.43
3501.00,4.62
3500.00,4.83
3499.00,5.04
3498.00,5.26
3497.00,5.50
3496.00,5.75
3495.00,6.01
3494.00,6.28
3493.00,6.56
3492.00,6.84
3491.00,7.14
3490.00,7.44
3489.00,7.74
3488.00,8.05
3487.00,8.36
3486.00,8.67
3485.00,8.97
3484.00,9.26
3483.00,9.55
3482.00,9.82
3481.00,10.07
3480.00,10.31
3479.00,10.52
3478.00,10.70
3477.00,10.86
3476.00,10.98
3475.00,11.07
3474.00,11.12
3473.00,11.14
3472.00,11.12
3471.00,11.07
3470.00,10.98
3469.00,10.87
3468.00,10.72
3467.00,10.54
3466.00,10.33
3465.00,10.10
3464.00,9.85
3463.00,9.58
3462.00,9.30
3461.00,9.01
3460.00,8.71
3459.00,8.41
3458.00,8.10
3457.00,7.79
3456.00,7.49
3455.00,7.19
3454.00,6.89
3453.00,6.60
3452.00,6.31
3451.00,6.04
3450.00,5.77
3449.00,5.52
3448.00,5.27
3447.00,5.03
3446.00,4.80
3445.00,4.58
3444.00,4.37
3443.00,4.18
3442.00,3.99
3441.00,3.81
3440.00,3.65
3439.00,3.49
3438.00,3.34
3437.00,3.20
3436.00,3.06
3435.00,2.94
3434.00,2.82
3433.00,2.71
3432.00,2.60
3431.00,2.50
3430.00,2.41
3429.00,2.32
3428.00,2.24
3427.00,2.16
3426.00,2.08
3425.00,2.01
3424.00,1.94
3423.00,1.88
3422.00,1.82
3421.00,1.77
3420.00,1.72
3419.00,1.67
3418.00,1.63
3417.00,1.58
3416.00,1.54
3415.00,1.51
3414.00,1.47
3413.00,1.44
3412.00,1.41
3411.00,1.38
3410.00,1.36
3409.00,1.33
3408.00,1.31
3407.00,1.29
3406.00,1.27
3405.00,1.25
3404.00,1.24
3403.00,1.22
3402.00,1.21
3401.00,1.20
3400.00,1.19
3399.00,1.17
3398.00,1.16
3397.00,1.15
3396.00,1.13
3395.00,1.12
3394.00,1.11
3393.00,1.09
3392.00,1.08
3391.00,1.07
3390.00,1.06
3389.00,1.05
3388.00,1.04
3387.00,1.03
3386.00,1.02
3385.00,1.01
3384.00,1.00
3383.00,0.99
3382.00,0.98
3381.00,0.97
3380.00,0.96
3379.00,0.95
3378.00,0.95
3377.00,0.94
3376.00,0.94
3375.00,0.93
3374.00,0.93
3373.00,0.92
3372.00,0.92
3371.00,0.92
3370.00,0.91
3369.00,0.91
3368.00,0.91
3367.00,0.90
3366.00,0.90
3365.00,0.90
3364.00,0.90
3363.00,0.90
3362.00,0.90
3361.00,0.90
3360.00,0.90
3359.00,0.90
3358.00,0.90
3357.00,0.90
3356.00,0.91
3355.00,0.91
3354.00,0.91
3353.00,0.91
3352.00,0.92
3351.00,0.92
3350.00,0.93
3349.00,0.93
3348.00,0.94
3347.00,0.94
3346.00,0.95
3345.00,0.96
3344.00,0.97
3343.00,0.97
3342.00,0.98
3341.00,0.99
3340.00,1.00
3339.00,1.01
3338.00,1.02
3337.00,1.03
3336.00,1.04
3335.00,1.06
3334.00,1.07
3333.00,1.09
3332.00,1.10
3331.00,1.12
3330.00,1.13
3329.00,1.15
3328.00,1.17
3327.00,1.19
3326.00,1.21
3325.00,1.23
3324.00,1.25
3323.00,1.28
3322.00,1.31
3321.00,1.33
3320.00,1.36
3319.00,1.39
3318.00,1.42
3317.00,1.45
3316.00,1.48
3315.00,1.52
3314.00,1.55
3313.00,1.59
3312.00,1.63
3311.00,1.68
3310.00,1.72
3309.00,1.77
3308.00,1.83
3307.00,1.88
3306.00,1.94
3305.00,2.00
3304.00,2.07
3303.00,2.14
3302.00,2.22
3301.00,2.30
3300.00,2.38
3299.00,2.48
3298.00,2.57
3297.00,2.68
3296.00,2.79
3295.00,2.91
3294.00,3.03
3293.00,3.17
3292.00,3.32
3291.00,3.48
3290.00,3.64
3289.00,3.82
3288.00,4.01
3287.00,4.22
3286.00,4.43
3285.00,4.66
3284.00,4.91
3283.00,5.16
3282.00,5.44
3281.00,5.72
3280.00,6.02
3279.00,6.34
3278.00,6.66
3277.00,7.00
3276.00,7.34
3275.00,7.69
3274.00,8.04
3273.00,8.40
3272.00,8.75
3271.00,9.10
3270.00,9.43
3269.00,9.75
3268.00,10.05
3267.00,10.32
3266.00,10.56
3265.00,10.76
3264.00,10.93
3263.00,11.06
3262.00,11.15
3261.00,11.19
3260.00,11.18
3259.00,11.13
3258.00,11.04
3257.00,10.91
3256.00,10.73
3255.00,10.53
3254.00,10.29
3253.00,10.03
3252.00,9.74
3251.00,9.44
3250.00,9.13
3249.00,8.80
3248.00,8.47
3247.00,8.13
3246.00,7.80
3245.00,7.46
3244.00,7.13
3243.00,6.81
3242.00,6.50
3241.00,6.19
3240.00,5.90
3239.00,5.62
3238.00,5.34
3237.00,5.08
3236.00,4.83
3235.00,4.59
3234.00,4.37
3233.00,4.15
3232.00,3.95
3231.00,3.76
3230.00,3.58
3229.00,3.41
3228.00,3.26
3227.00,3.10
3226.00,2.96
3225.00,2.83
3224.00,2.70
3223.00,2.59
3222.00,2.48
3221.00,2.37
3220.00,2.28
3219.00,2.19
3218.00,2.10
3217.00,2.02
3216.00,1.95
3215.00,1.88
3214.00,1.81
3213.00,1.75
3212.00,1.69
3211.00,1.64
3210.00,1.59
3209.00,1.54
3208.00,1.49
3207.00,1.45
3206.00,1.40
3205.00,1.37
3204.00,1.33
3203.00,1.29
3202.00,1.26
3201.00,1.23
3200.00,1.20
3199.00,1.17
3198.00,1.15
3197.00,1.12
3196.00,1.10
3195.00,1.07
3194.00,1.05
3193.00,1.03
3192.00,1.01
3191.00,0.99
3190.00,0.98
3189.00,0.96
3188.00,0.94
3187.00,0.93
3186.00,0.91
3185.00,0.90
3184.00,0.88
3183.00,0.87
3182.00,0.86
3181.00,0.85
3180.00,0.84
3179.00,0.83
3178.00,0.82
3177.00,0.81
3176.00,0.80
3175.00,0.80
3174.00,0.79
3173.00,0.78
3172.00,0.78
3171.00,0.77
3170.00,0.76
3169.00,0.76
3168.00,0.75
3167.00,0.75
3166.00,0.74
3165.00,0.74
3164.00,0.74
3163.00,0.73
3162.00,0.73
3161.00,0.73
3160.00,0.73
3159.00,0.73
3158.00,0.73
3157.00,0.73
3156.00,0.73
3155.00,0.73
3154.00,0.73
3153.00,0.73
3152.00,0.73
3151.00,0.73
3150.00,0.73
3149.00,0.73
3148.00,0.73
3147.00,0.73
3146.00,0.74
3145.00,0.74
3144.00,0.75
3143.00,0.75
3142.00,0.75
3141.00,0.76
3140.00,0.76
3139.00,0.77
3138.00,0.77
3137.00,0.78
3136.00,0.79
3135.00,0.80
3134.00,0.80
3133.00,0.81
3132.00,0.82
3131.00,0.83
3130.00,0.84
3129.00,0.86
3128.00,0.87
3127.00,0.88
3126.00,0.89
3125.00,0.91
3124.00,0.92
3123.00,0.94
3122.00,0.95
3121.00,0.97
3120.00,0.99
3119.00,1.01
3118.00,1.03
3117.00,1.05
3116.00,1.08
3115.00,1.10
3114.00,1.13
3113.00,1.15
3112.00,1.18
3111.00,1.22
3110.00,1.25
3109.00,1.29
3108.00,1.32
3107.00,1.37
3106.00,1.41
3105.00,1.46
3104.00,1.51
3103.00,1.56
3102.00,1.62
3101.00,1.68
3100.00,1.75
3099.00,1.82
3098.00,1.90
3097.00,1.98
3096.00,2.07
3095.00,2.17
3094.00,2.27
3093.00,2.38
3092.00,2.50
3091.00,2.63
3090.00,2.77
3089.00,2.93
3088.00,3.10
3087.00,3.28
3086.00,3.47
3085.00,3.68
3084.00,3.91
3083.00,4.15
3082.00,4.41
3081.00,4.69
3080.00,4.98
3079.00,5.30
3078.00,5.62
3077.00,5.96
3076.00,6.31
3075.00,6.66
3074.00,7.01
3073.00,7.35
3072.00,7.69
3071.00,8.00
3070.00,8.29
3069.00,8.55
3068.00,8.77
3067.00,8.94
3066.00,9.06
3065.00,9.13
3064.00,9.15
3063.00,9.11
3062.00,9.02
3061.00,8.88
3060.00,8.70
3059.00,8.48
3058.00,8.23
3057.00,7.95
3056.00,7.65
3055.00,7.33
3054.00,7.00
3053.00,6.67
3052.00,6.34
3051.00,6.00
3050.00,5.68
3049.00,5.36
3048.00,5.04
3047.00,4.74
3046.00,4.45
3045.00,4.18
3044.00,3.91
3043.00,3.66
3042.00,3.42
3041.00,3.20
3040.00,3.00
3039.00,2.81
3038.00,2.63
3037.00,2.47
3036.00,2.32
3035.00,2.18
3034.00,2.05
3033.00,1.93
3032.00,1.83
3031.00,1.73
3030.00,1.64
3029.00,1.56
3028.00,1.48
3027.00,1.41
3026.00,1.35
3025.00,1.29
3024.00,1.23
3023.00,1.18
3022.00,1.13
3021.00,1.08
3020.00,1.04
3019.00,1.00
3018.00,0.96
3017.00,0.93
3016.00,0.90
3015.00,0.86
3014.00,0.83
3013.00,0.81
3012.00,0.78
3011.00,0.76
3010.00,0.74
3009.00,0.72
3008.00,0.70
3007.00,0.68
3006.00,0.67
3005.00,0.65
3004.00,0.64
3003.00,0.62
3002.00,0.61
3001.00,0.60
3000.00,0.59
2999.00,0.58
2998.00,0.57
2997.00,0.56
2996.00,0.56
2995.00,0.55
2994.00,0.54
2993.00,0.54
2992.00,0.54
2991.00,0.53
2990.00,0.53
2989.00,0.53
2988.00,0.53
2987.00,0.54
2986.00,0.54
2985.00,0.54
2984.00,0.54
2983.00,0.55
2982.00,0.55
2981.00,0.55
2980.00,0.56
2979.00,0.56
2978.00,0.55
2977.00,0.55
2976.00,0.54
2975.00,0.52
2974.00,0.50
2973.00,0.48
2972.00,0.45
2971.00,0.41
2970.00,0.37
2969.00,0.33
2968.00,0.29
2967.00,0.25
2966.00,0.22
2965.00,0.19
2964.00,0.16
2963.00,0.14
2962.00,0.11
2961.00,0.10
2960.00,0.08
2959.00,0.07
2958.00,0.06
2957.00,0.05
2956.00,0.05
2955.00,0.04
2954.00,0.04
2953.00,0.04
2952.00,0.03
2951.00,0.03
2950.00,0.03
2949.00,0.02
2948.00,0.02
2947.00,0.02
2946.00,0.02
2945.00,0.01
2944.00,0.01
2943.00,0.01
2942.00,0.01
2941.00,0.01
2940.00,0.01
2939.00,0.01
2938.00,0.01
2937.00,0.01
2936.00,0.01
2935.00,0.01
2934.00,0.01
2933.00,0.01
2932.00,0.01
2931.00,0.02
2930.00,0.02
2929.00,0.02
2928.00,0.03
2927.00,0.03
2926.00,0.03
2925.00,0.04
2924.00,0.04
2923.00,0.05
2922.00,0.06
2921.00,0.07
2920.00,0.08
2919.00,0.09
2918.00,0.11
2917.00,0.12
2916.00,0.14
2915.00,0.15
2914.00,0.17
2913.00,0.18
2912.00,0.19
2911.00,0.20
2910.00,0.21
2909.00,0.21
2908.00,0.22
2907.00,0.22
2906.00,0.23
2905.00,0.23
2904.00,0.24
2903.00,0.24
2902.00,0.25
2901.00,0.25
2900.00,0.26
2899.00,0.26
2898.00,0.26
2897.00,0.27
2896.00,0.27
2895.00,0.27
2894.00,0.27
2893.00,0.27
2892.00,0.28
2891.00,0.28
2890.00,0.28
2889.00,0.28
2888.00,0.28
2887.00,0.29
2886.00,0.29
2885.00,0.29
2884.00,0.29
2883.00,0.29
2882.00,0.29
2881.00,0.28
2880.00,0.28
2879.00,0.27
2878.00,0.27
2877.00,0.26
2876.00,0.25
2875.00,0.24
2874.00,0.22
2873.00,0.21
2872.00,0.19
2871.00,0.17
2870.00,0.16
2869.00,0.14
2868.00,0.12
2867.00,0.11
2866.00,0.09
2865.00,0.08
2864.00,0.08
2863.00,0.07
2862.00,0.07
2861.00,0.07
2860.00,0.08
2859.00,0.09
2858.00,0.10
2857.00,0.11
2856.00,0.13
2855.00,0.14
2854.00,0.16
2853.00,0.19
2852.00,0.21
2851.00,0.24
2850.00,0.26
2849.00,0.28
2848.00,0.30
2847.00,0.32
2846.00,0.33
2845.00,0.35
2844.00,0.36
2843.00,0.37
2842.00,0.39
2841.00,0.40
2840.00,0.41
2839.00,0.42
2838.00,0.44
2837.00,0.45
2836.00,0.46
2835.00,0.48
2834.00,0.49
2833.00,0.50
2832.00,0.52
2831.00,0.53
2830.00,0.55
2829.00,0.56
2828.00,0.58
2827.00,0.59
2826.00,0.61
2825.00,0.63
2824.00,0.65
2823.00,0.68
2822.00,0.70
2821.00,0.73
2820.00,0.77
2819.00,0.80
2818.00,0.84
2817.00,0.88
2816.00,0.93
2815.00,0.98
2814.00,1.04
2813.00,1.11
2812.00,1.18
2811.00,1.25
2810.00,1.34
2809.00,1.43
2808.00,1.53
2807.00,1.65
2806.00,1.77
2805.00,1.91
2804.00,2.05
2803.00,2.21
2802.00,2.38
2801.00,2.55
2800.00,2.73
2799.00,2.92
2798.00,3.11
2797.00,3.31
2796.00,3.52
2795.00,3.75
2794.00,4.00
2793.00,4.27
2792.00,4.57
2791.00,4.89
2790.00,5.21
2789.00,5.53
2788.00,5.83
2787.00,6.10
2786.00,6.33
2785.00,6.51
2784.00,6.63
2783.00,6.69
2782.00,6.68
2781.00,6.62
2780.00,6.50
2779.00,6.34
2778.00,6.14
2777.00,5.91
2776.00,5.67
2775.00,5.41
2774.00,5.14
2773.00,4.87
2772.00,4.60
2771.00,4.33
2770.00,4.07
2769.00,3.81
2768.00,3.57
2767.00,3.33
2766.00,3.11
2765.00,2.91
2764.00,2.72
2763.00,2.55
2762.00,2.39
2761.00,2.24
2760.00,2.11
2759.00,1.98
2758.00,1.87
2757.00,1.77
2756.00,1.67
2755.00,1.58
2754.00,1.49
2753.00,1.42
2752.00,1.34
2751.00,1.27
2750.00,1.21
2749.00,1.15
2748.00,1.10
2747.00,1.05
2746.00,1.00
2745.00,0.96
2744.00,0.92
2743.00,0.89
2742.00,0.85
2741.00,0.82
2740.00,0.79
2739.00,0.77
2738.00,0.74
2737.00,0.72
2736.00,0.70
2735.00,0.67
2734.00,0.66
2733.00,0.64
2732.00,0.62
2731.00,0.61
2730.00,0.59
2729.00,0.58
2728.00,0.56
2727.00,0.55
2726.00,0.54
2725.00,0.53
2724.00,0.51
2723.00,0.50
2722.00,0.50
2721.00,0.49
2720.00,0.48
2719.00,0.47
2718.00,0.46
2717.00,0.46
2716.00,0.45
2715.00,0.45
2714.00,0.44
2713.00,0.43
2712.00,0.43
2711.00,0.42
2710.00,0.42
2709.00,0.41
2708.00,0.41
2707.00,0.41
2706.00,0.40
2705.00,0.40
2704.00,0.40
2703.00,0.39
2702.00,0.39
2701.00,0.39
2700.00,0.39
2699.00,0.39
2698.00,0.38
2697.00,0.38
2696.00,0.38
2695.00,0.38
2694.00,0.38
2693.00,0.38
2692.00,0.38
2691.00,0.37
2690.00,0.37
2689.00,0.37
2688.00,0.37
2687.00,0.38
2686.00,0.38
2685.00,0.38
2684.00,0.38
2683.00,0.38
2682.00,0.38
2681.00,0.38
2680.00,0.38
2679.00,0.38
2678.00,0.38
2677.00,0.38
2676.00,0.38
2675.00,0.39
2674.00,0.39
2673.00,0.39
2672.00,0.39
2671.00,0.39
2670.00,0.40
2669.00,0.40
2668.00,0.40
2667.00,0.40
2666.00,0.41
2665.00,0.41
2664.00,0.42
2663.00,0.42
2662.00,0.43
2661.00,0.44
2660.00,0.44
2659.00,0.45
2658.00,0.46
2657.00,0.46
2656.00,0.47
2655.00,0.48
2654.00,0.49
2653.00,0.50
2652.00,0.50
2651.00,0.51
2650.00,0.53
2649.00,0.54
2648.00,0.55
2647.00,0.56
2646.00,0.57
2645.00,0.58
2644.00,0.60
2643.00,0.61
2642.00,0.63
2641.00,0.65
2640.00,0.67
2639.00,0.69
2638.00,0.71
2637.00,0.73
2636.00,0.76
2635.00,0.79
2634.00,0.82
2633.00,0.85
2632.00,0.88
2631.00,0.91
2630.00,0.95
2629.00,0.99
2628.00,1.04
2627.00,1.09
2626.00,1.14
2625.00,1.19
2624.00,1.25
2623.00,1.32
2622.00,1.39
2621.00,1.46
2620.00,1.54
2619.00,1.62
2618.00,1.71
2617.00,1.81
2616.00,1.92
2615.00,2.04
2614.00,2.16
2613.00,2.29
2612.00,2.44
2611.00,2.59
2610.00,2.76
2609.00,2.95
2608.00,3.15
2607.00,3.37
2606.00,3.61
2605.00,3.88
2604.00,4.17
2603.00,4.48
2602.00,4.81
2601.00,5.16
2600.00,5.51
2599.00,5.87
2598.00,6.22
2597.00,6.56
2596.00,6.88
2595.00,7.16
2594.00,7.39
2593.00,7.57
2592.00,7.70
2591.00,7.76
2590.00,7.76
2589.00,7.70
2588.00,7.58
2587.00,7.42
2586.00,7.22
2585.00,6.98
2584.00,6.71
2583.00,6.43
2582.00,6.13
2581.00,5.82
2580.00,5.50
2579.00,5.19
2578.00,4.88
2577.00,4.57
2576.00,4.28
2575.00,4.00
2574.00,3.74
2573.00,3.49
2572.00,3.26
2571.00,3.04
2570.00,2.84
2569.00,2.65
2568.00,2.48
2567.00,2.32
2566.00,2.17
2565.00,2.03
2564.00,1.91
2563.00,1.79
2562.00,1.69
2561.00,1.59
2560.00,1.50
2559.00,1.41
2558.00,1.33
2557.00,1.26
2556.00,1.20
2555.00,1.13
2554.00,1.08
2553.00,1.03
2552.00,0.98
2551.00,0.93
2550.00,0.89
2549.00,0.85
2548.00,0.82
2547.00,0.78
2546.00,0.75
2545.00,0.72
2544.00,0.69
2543.00,0.67
2542.00,0.65
2541.00,0.63
2540.00,0.60
2539.00,0.59
2538.00,0.57
2537.00,0.55
2536.00,0.54
2535.00,0.52
2534.00,0.51
2533.00,0.50
2532.00,0.48
2531.00,0.47
2530.00,0.46
2529.00,0.45
2528.00,0.44
2527.00,0.43
2526.00,0.42
2525.00,0.41
2524.00,0.40
2523.00,0.39
2522.00,0.39
2521.00,0.38
2520.00,0.37
2519.00,0.37
2518.00,0.36
2517.00,0.36
2516.00,0.35
2515.00,0.35
2514.00,0.34
2513.00,0.33
2512.00,0.33
2511.00,0.33
2510.00,0.32
2509.00,0.32
2508.00,0.31
2507.00,0.31
2506.00,0.31
2505.00,0.30
2504.00,0.30
2503.00,0.30
2502.00,0.29
2501.00,0.29
2500.00,0.29
2499.00,0.29
2498.00,0.29
2497.00,0.29
2496.00,0.28
2495.00,0.28
2494.00,0.28
2493.00,0.28
2492.00,0.28
2491.00,0.28
2490.00,0.28
2489.00,0.28
2488.00,0.27
2487.00,0.27
2486.00,0.27
2485.00,0.27
2484.00,0.27
2483.00,0.27
2482.00,0.27
2481.00,0.27
2480.00,0.27
2479.00,0.27
2478.00,0.27
2477.00,0.27
2476.00,0.28
2475.00,0.28
2474.00,0.28
2473.00,0.28
2472.00,0.28
2471.00,0.28
2470.00,0.28
2469.00,0.28
2468.00,0.28
2467.00,0.28
2466.00,0.29
2465.00,0.29
2464.00,0.29
2463.00,0.30
2462.00,0.30
2461.00,0.30
2460.00,0.30
2459.00,0.31
2458.00,0.31
2457.00,0.31
2456.00,0.32
2455.00,0.32
2454.00,0.33
2453.00,0.33
2452.00,0.33
2451.00,0.34
2450.00,0.34
2449.00,0.35
2448.00,0.35
2447.00,0.36
2446.00,0.37
2445.00,0.37
2444.00,0.38
2443.00,0.39
2442.00,0.39
2441.00,0.40
2440.00,0.41
2439.00,0.42
2438.00,0.44
2437.00,0.45
2436.00,0.46
2435.00,0.47
2434.00,0.48
2433.00,0.49
2432.00,0.51
2431.00,0.52
2430.00,0.54
2429.00,0.56
2428.00,0.57
2427.00,0.59
2426.00,0.61
2425.00,0.64
2424.00,0.66
2423.00,0.68
2422.00,0.71
2421.00,0.74
2420.00,0.77
2419.00,0.80
2418.00,0.83
2417.00,0.87
2416.00,0.91
2415.00,0.96
2414.00,1.01
2413.00,1.06
2412.00,1.12
2411.00,1.19
2410.00,1.26
2409.00,1.34
2408.00,1.43
2407.00,1.52
2406.00,1.63
2405.00,1.75
2404.00,1.88
2403.00,2.02
2402.00,2.18
2401.00,2.36
2400.00,2.55
2399.00,2.76
2398.00,2.98
2397.00,3.23
2396.00,3.50
2395.00,3.78
2394.00,4.07
2393.00,4.38
2392.00,4.69
2391.00,5.01
2390.00,5.32
2389.00,5.62
2388.00,5.89
2387.00,6.13
2386.00,6.33
2385.00,6.48
2384.00,6.59
2383.00,6.64
2382.00,6.64
2381.00,6.59
2380.00,6.49
2379.00,6.35
2378.00,6.16
2377.00,5.93
2376.00,5.68
2375.00,5.40
2374.00,5.11
2373.00,4.81
2372.00,4.51
2371.00,4.22
2370.00,3.93
2369.00,3.67
2368.00,3.42
2367.00,3.19
2366.00,2.99
2365.00,2.81
2364.00,2.66
2363.00,2.52
2362.00,2.40
2361.00,2.30
2360.00,2.20
2359.00,2.11
2358.00,2.01
2357.00,1.92
2356.00,1.82
2355.00,1.72
2354.00,1.63
2353.00,1.54
2352.00,1.46
2351.00,1.39
2350.00,1.33
2349.00,1.27
2348.00,1.21
2347.00,1.16
2346.00,1.11
2345.00,1.06
2344.00,1.01
2343.00,0.97
2342.00,0.93
2341.00,0.90
2340.00,0.87
2339.00,0.83
2338.00,0.80
2337.00,0.76
2336.00,0.73
2335.00,0.69
2334.00,0.70
2333.00,0.59
2332.00,0.42
2331.00,0.44
2330.00,0.41
2329.00,0.41
2328.00,0.39
2327.00,0.38
2326.00,0.37
2325.00,0.36
2324.00,0.35
2323.00,0.34
2322.00,0.34
2321.00,0.33
2320.00,0.33
2319.00,0.31
2318.00,0.33
2317.00,0.38
2316.00,0.36
2315.00,0.36
2314.00,0.34
2313.00,0.34
2312.00,0.33
2311.00,0.32
2310.00,0.31
2309.00,0.31
2308.00,0.31
2307.00,0.30
2306.00,0.30
2305.00,0.29
2304.00,0.28
2303.00,0.28
2302.00,0.27
2301.00,0.26
2300.00,0.26
2299.00,0.25
2298.00,0.25
2297.00,0.25
2296.00,0.24
2295.00,0.24
2294.00,0.23
2293.00,0.23
2292.00,0.22
2291.00,0.22
2290.00,0.22
2289.00,0.22
2288.00,0.22
2287.00,0.22
2286.00,0.21
2285.00,0.21
2284.00,0.21
2283.00,0.21
2282.00,0.21
2281.00,0.20
2280.00,0.20
2279.00,0.20
2278.00,0.20
2277.00,0.20
2276.00,0.20
2275.00,0.20
2274.00,0.20
2273.00,0.20
2272.00,0.20
2271.00,0.20
2270.00,0.19
2269.00,0.19
2268.00,0.19
2267.00,0.19
2266.00,0.19
2265.00,0.19
2264.00,0.20
2263.00,0.20
2262.00,0.20
2261.00,0.20
2260.00,0.20
2259.00,0.20
2258.00,0.20
2257.00,0.21
2256.00,0.21
2255.00,0.21
2254.00,0.21
2253.00,0.21
2252.00,0.21
2251.00,0.22
2250.00,0.22
2249.00,0.22
2248.00,0.22
2247.00,0.22
2246.00,0.23
2245.00,0.23
2244.00,0.23
2243.00,0.23
2242.00,0.24
2241.00,0.24
2240.00,0.25
2239.00,0.25
2238.00,0.25
2237.00,0.26
2236.00,0.26
2235.00,0.26
2234.00,0.27
2233.00,0.27
2232.00,0.28
2231.00,0.29
2230.00,0.29
2229.00,0.30
2228.00,0.31
2227.00,0.31
2226.00,0.32
2225.00,0.33
2224.00,0.34
2223.00,0.35
2222.00,0.35
2221.00,0.37
2220.00,0.38
2219.00,0.39
2218.00,0.40
2217.00,0.42
2216.00,0.43
2215.00,0.45
2214.00,0.46
2213.00,0.48
2212.00,0.50
2211.00,0.52
2210.00,0.54
2209.00,0.56
2208.00,0.59
2207.00,0.61
2206.00,0.64
2205.00,0.67
2204.00,0.71
2203.00,0.75
2202.00,0.79
2201.00,0.83
2200.00,0.88
2199.00,0.93
2198.00,0.99
2197.00,1.06
2196.00,1.13
2195.00,1.22
2194.00,1.31
2193.00,1.41
2192.00,1.52
2191.00,1.64
2190.00,1.78
2189.00,1.92
2188.00,2.08
2187.00,2.26
2186.00,2.44
2185.00,2.64
2184.00,2.84
2183.00,3.05
2182.00,3.26
2181.00,3.47
2180.00,3.67
2179.00,3.85
2178.00,4.01
2177.00,4.16
2176.00,4.29
2175.00,4.41
2174.00,4.52
2173.00,4.62
2172.00,4.69
2171.00,4.74
2170.00,4.76
2169.00,4.74
2168.00,4.68
2167.00,4.58
2166.00,4.45
2165.00,4.28
2164.00,4.09
2163.00,3.88
2162.00,3.65
2161.00,3.42
2160.00,3.19
2159.00,2.97
2158.00,2.75
2157.00,2.54
2156.00,2.34
2155.00,2.15
2154.00,1.98
2153.00,1.82
2152.00,1.67
2151.00,1.54
2150.00,1.42
2149.00,1.31
2148.00,1.21
2147.00,1.12
2146.00,1.04
2145.00,0.97
2144.00,0.90
2143.00,0.85
2142.00,0.79
2141.00,0.74
2140.00,0.70
2139.00,0.66
2138.00,0.62
2137.00,0.59
2136.00,0.56
2135.00,0.53
2134.00,0.51
2133.00,0.48
2132.00,0.46
2131.00,0.44
2130.00,0.42
2129.00,0.41
2128.00,0.39
2127.00,0.38
2126.00,0.36
2125.00,0.35
2124.00,0.34
2123.00,0.33
2122.00,0.32
2121.00,0.31
2120.00,0.30
2119.00,0.29
2118.00,0.28
2117.00,0.27
2116.00,0.26
2115.00,0.25
2114.00,0.25
2113.00,0.24
2112.00,0.23
2111.00,0.23
2110.00,0.22
2109.00,0.22
2108.00,0.21
2107.00,0.21
2106.00,0.20
2105.00,0.20
2104.00,0.19
2103.00,0.19
2102.00,0.19
2101.00,0.18
2100.00,0.18
2099.00,0.18
2098.00,0.17
2097.00,0.17
2096.00,0.17
2095.00,0.17
2094.00,0.17
2093.00,0.16
2092.00,0.16
2091.00,0.16
2090.00,0.16
2089.00,0.16
2088.00,0.16
2087.00,0.15
2086.00,0.15
2085.00,0.15
2084.00,0.15
2083.00,0.15
2082.00,0.14
2081.00,0.14
2080.00,0.14
2079.00,0.14
2078.00,0.14
2077.00,0.14
2076.00,0.14
2075.00,0.14
2074.00,0.14
2073.00,0.14
2072.00,0.14
2071.00,0.14
2070.00,0.14
2069.00,0.14
2068.00,0.14
2067.00,0.14
2066.00,0.14
2065.00,0.14
2064.00,0.14
2063.00,0.14
2062.00,0.14
2061.00,0.14
2060.00,0.14
2059.00,0.13
2058.00,0.13
2057.00,0.13
2056.00,0.13
2055.00,0.14
2054.00,0.14
2053.00,0.14
2052.00,0.14
2051.00,0.14
2050.00,0.14
2049.00,0.14
2048.00,0.14
2047.00,0.14
2046.00,0.14
2045.00,0.14
2044.00,0.15
2043.00,0.15
2042.00,0.15
2041.00,0.15
2040.00,0.15
2039.00,0.15
2038.00,0.16
2037.00,0.16
2036.00,0.16
2035.00,0.16
2034.00,0.16
2033.00,0.17
2032.00,0.17
2031.00,0.17
2030.00,0.17
2029.00,0.17
2028.00,0.18
2027.00,0.18
2026.00,0.18
2025.00,0.19
2024.00,0.19
2023.00,0.19
2022.00,0.20
2021.00,0.20
2020.00,0.21
2019.00,0.22
2018.00,0.22
2017.00,0.23
2016.00,0.23
2015.00,0.24
2014.00,0.24
2013.00,0.25
2012.00,0.26
2011.00,0.27
2010.00,0.28
2009.00,0.29
2008.00,0.29
2007.00,0.30
2006.00,0.32
2005.00,0.33
2004.00,0.34
2003.00,0.35
2002.00,0.37
2001.00,0.39
2000.00,0.41
1999.00,0.43
1998.00,0.45
1997.00,0.47
1996.00,0.50
1995.00,0.53
1994.00,0.56
1993.00,0.60
1992.00,0.64
1991.00,0.68
1990.00,0.72
1989.00,0.78
1988.00,0.84
1987.00,0.90
1986.00,0.97
1985.00,1.05
1984.00,1.14
1983.00,1.23
1982.00,1.33
1981.00,1.44
1980.00,1.56
1979.00,1.69
1978.00,1.83
1977.00,1.98
1976.00,2.13
1975.00,2.30
1974.00,2.48
1973.00,2.66
1972.00,2.85
1971.00,3.04
1970.00,3.24
1969.00,3.42
1968.00,3.58
1967.00,3.70
1966.00,3.79
1965.00,3.83
1964.00,3.82
1963.00,3.77
1962.00,3.67
1961.00,3.54
1960.00,3.38
1959.00,3.20
1958.00,3.01
1957.00,2.81
1956.00,2.61
1955.00,2.41
1954.00,2.21
1953.00,2.03
1952.00,1.85
1951.00,1.69
1950.00,1.55
1949.00,1.42
1948.00,1.30
1947.00,1.20
1946.00,1.11
1945.00,1.03
1944.00,0.95
1943.00,0.88
1942.00,0.80
1941.00,0.74
1940.00,0.69
1939.00,0.65
1938.00,0.60
1937.00,0.56
1936.00,0.52
1935.00,0.49
1934.00,0.46
1933.00,0.44
1932.00,0.41
1931.00,0.39
1930.00,0.37
1929.00,0.35
1928.00,0.33
1927.00,0.31
1926.00,0.30
1925.00,0.29
1924.00,0.28
1923.00,0.27
1922.00,0.26
1921.00,0.25
1920.00,0.24
1919.00,0.23
1918.00,0.21
1917.00,0.21
1916.00,0.20
1915.00,0.19
1914.00,0.19
1913.00,0.18
1912.00,0.18
1911.00,0.18
1910.00,0.17
1909.00,0.17
1908.00,0.16
1907.00,0.16
1906.00,0.15
1905.00,0.15
1904.00,0.15
1903.00,0.14
1902.00,0.14
1901.00,0.13
1900.00,0.13
1899.00,0.13
1898.00,0.13
1897.00,0.12
1896.00,0.12
1895.00,0.12
1894.00,0.12
1893.00,0.12
1892.00,0.12
1891.00,0.12
1890.00,0.11
1889.00,0.11
1888.00,0.11
1887.00,0.11
1886.00,0.11
1885.00,0.11
1884.00,0.10
1883.00,0.10
1882.00,0.10
1881.00,0.10
1880.00,0.10
1879.00,0.10
1878.00,0.09
1877.00,0.09
1876.00,0.09
1875.00,0.09
1874.00,0.09
1873.00,0.09
1872.00,0.09
1871.00,0.09
1870.00,0.09
1869.00,0.09
1868.00,0.09
1867.00,0.10
1866.00,0.10
1865.00,0.10
1864.00,0.10
1863.00,0.10
1862.00,0.09
1861.00,0.09
1860.00,0.09
1859.00,0.09
1858.00,0.09
1857.00,0.10
1856.00,0.10
1855.00,0.10
1854.00,0.10
1853.00,0.10
1852.00,0.10
1851.00,0.10
1850.00,0.10
1849.00,0.10
1848.00,0.10
1847.00,0.10
1846.00,0.10
1845.00,0.10
1844.00,0.11
1843.00,0.11
1842.00,0.11
1841.00,0.11
1840.00,0.11
1839.00,0.11
1838.00,0.12
1837.00,0.12
1836.00,0.12
1835.00,0.12
1834.00,0.12
1833.00,0.13
1832.00,0.13
1831.00,0.13
1830.00,0.14
1829.00,0.14
1828.00,0.15
1827.00,0.15
1826.00,0.15
1825.00,0.16
1824.00,0.17
1823.00,0.17
1822.00,0.18
1821.00,0.19
1820.00,0.20
1819.00,0.21
1818.00,0.21
1817.00,0.22
1816.00,0.23
1815.00,0.25
1814.00,0.26
1813.00,0.27
1812.00,0.29
1811.00,0.30
1810.00,0.31
1809.00,0.32
1808.00,0.34
1807.00,0.35
1806.00,0.36
1805.00,0.38
1804.00,0.40
1803.00,0.42
1802.00,0.45
1801.00,0.48
1800.00,0.54
1799.00,0.60
1798.00,0.69
1797.00,0.79
1796.00,0.92
1795.00,1.07
1794.00,1.23
1793.00,1.38
1792.00,1.52
1791.00,1.66
1790.00,1.79
1789.00,1.92
1788.00,2.01
1787.00,2.01
1786.00,1.91
1785.00,1.76
1784.00,1.58
1783.00,1.43
1782.00,1.29
1781.00,1.13
1780.00,0.97
1779.00,0.82
1778.00,0.70
1777.00,0.60
1776.00,0.52
1775.00,0.46
1774.00,0.42
1773.00,0.37
1772.00,0.33
1771.00,0.28
1770.00,0.25
1769.00,0.22
1768.00,0.19
1767.00,0.17
1766.00,0.16
1765.00,0.15
1764.00,0.15
1763.00,0.14
1762.00,0.13
1761.00,0.12
1760.00,0.12
1759.00,0.11
1758.00,0.11
1757.00,0.10
1756.00,0.09
1755.00,0.09
1754.00,0.08
1753.00,0.08
1752.00,0.08
1751.00,0.07
1750.00,0.07
1749.00,0.07
1748.00,0.07
1747.00,0.07
1746.00,0.07
1745.00,0.07
1744.00,0.06
1743.00,0.06
1742.00,0.06
1741.00,0.06
1740.00,0.06
1739.00,0.06
1738.00,0.06
1737.00,0.07
1736.00,0.07
1735.00,0.08
1734.00,0.07
1733.00,0.07
1732.00,0.06
1731.00,0.06
1730.00,0.04
1729.00,0.03
1728.00,0.02
1727.00,0.01
1726.00,0.01
1725.00,0.00
1724.00,0.00
1723.00,0.00
1722.00,0.00
1721.00,0.00
1720.00,0.00
1719.00,0.00
1718.00,0.00
1717.00,0.00
1716.00,0.00
1715.00,0.00
1714.00,0.00
1713.00,0.00
1712.00,0.00
1711.00,0.00
1710.00,0.00
1709.00,0.00
1708.00,0.00
1707.00,0.00
1706.00,0.00
1705.00,0.00
1704.00,0.00
1703.00,0.00
1702.00,0.00
1701.00,0.00
1700.00,0.01
1699.00,0.01
1698.00,0.02
1697.00,0.03
1696.00,0.05
1695.00,0.05
1694.00,0.05
1693.00,0.05
1692.00,0.06
1691.00,0.06
1690.00,0.06
1689.00,0.06
1688.00,0.06
1687.00,0.07
1686.00,0.08
1685.00,0.09
1684.00,0.10
1683.00,0.10
1682.00,0.11
1681.00,0.11
1680.00,0.12
1679.00,0.13
1678.00,0.14
1677.00,0.14
1676.00,0.15
1675.00,0.15
1674.00,0.17
1673.00,0.19
1672.00,0.23
1671.00,0.26
1670.00,0.30
1669.00,0.33
1668.00,0.38
1667.00,0.45
1666.00,0.53
1665.00,0.62
1664.00,0.71
1663.00,0.77
1662.00,0.82
1661.00,0.84
1660.00,0.84
1659.00,0.81
1658.00,0.76
1657.00,0.70
1656.00,0.67
1655.00,0.64
1654.00,0.60
1653.00,0.52
1652.00,0.44
1651.00,0.40
1650.00,0.37
1649.00,0.33
1648.00,0.29
1647.00,0.26
1646.00,0.23
1645.00,0.20
1644.00,0.19
1643.00,0.17
1642.00,0.16
1641.00,0.15
1640.00,0.14
1639.00,0.13
1638.00,0.13
1637.00,0.13
1636.00,0.13
1635.00,0.12
1634.00,0.11
1633.00,0.11
1632.00,0.10
1631.00,0.10
1630.00,0.10
1629.00,0.10
1628.00,0.09
1627.00,0.09
1626.00,0.09
1625.00,0.09
1624.00,0.09
1623.00,0.08
1622.00,0.08
1621.00,0.08
1620.00,0.08
1619.00,0.07
1618.00,0.07
1617.00,0.07
1616.00,0.07
1615.00,0.07
1614.00,0.07
1613.00,0.06
1612.00,0.06
1611.00,0.06
1610.00,0.06
1609.00,0.06
1608.00,0.06
1607.00,0.06
1606.00,0.06
1605.00,0.06
1604.00,0.06
1603.00,0.06
1602.00,0.06
1601.00,0.06
1600.00,0.06
1599.00,0.06
1598.00,0.06
1597.00,0.06
1596.00,0.06
1595.00,0.06
1594.00,0.06
1593.00,0.06
1592.00,0.06
1591.00,0.06
1590.00,0.06
1589.00,0.06
1588.00,0.06
1587.00,0.06
1586.00,0.06
1585.00,0.06
1584.00,0.06
1583.00,0.06
1582.00,0.06
1581.00,0.06
1580.00,0.06
1579.00,0.06
1578.00,0.07
1577.00,0.07
1576.00,0.07
1575.00,0.07
1574.00,0.07
1573.00,0.07
1572.00,0.07
1571.00,0.07
1570.00,0.07
1569.00,0.07
1568.00,0.07
1567.00,0.07
1566.00,0.07
1565.00,0.08
1564.00,0.08
1563.00,0.08
1562.00,0.08
1561.00,0.09
1560.00,0.09
1559.00,0.10
1558.00,0.10
1557.00,0.10
1556.00,0.10
1555.00,0.10
1554.00,0.11
1553.00,0.11
1552.00,0.12
1551.00,0.12
1550.00,0.12
1549.00,0.13
1548.00,0.14
1547.00,0.14
1546.00,0.15
1545.00,0.15
1544.00,0.16
1543.00,0.17
1542.00,0.18
1541.00,0.19
1540.00,0.21
1539.00,0.22
1538.00,0.24
1537.00,0.25
1536.00,0.33
1535.00,0.34
1534.00,0.34
1533.00,0.35
1532.00,0.38
1531.00,0.42
1530.00,0.47
1529.00,0.52
1528.00,0.56
1527.00,0.62
1526.00,0.68
1525.00,0.75
1524.00,0.85
1523.00,0.97
1522.00,1.08
1521.00,1.16
1520.00,1.21
1519.00,1.27
1518.00,1.33
1517.00,1.36
1516.00,1.38
1515.00,1.41
1514.00,1.43
1513.00,1.43
1512.00,1.39
1511.00,1.36
1510.00,1.27
1509.00,1.20
1508.00,1.12
1507.00,1.02
1506.00,0.91
1505.00,0.81
1504.00,0.72
1503.00,0.65
1502.00,0.59
1501.00,0.53
1500.00,0.48
1499.00,0.43
1498.00,0.39
1497.00,0.36
1496.00,0.33
1495.00,0.30
1494.00,0.27
1493.00,0.25
1492.00,0.25
1491.00,0.22
1490.00,0.20
1489.00,0.19
1488.00,0.17
1487.00,0.16
1486.00,0.15
1485.00,0.14
1484.00,0.13
1483.00,0.12
1482.00,0.11
1481.00,0.11
1480.00,0.10
1479.00,0.09
1478.00,0.09
1477.00,0.08
1476.00,0.08
1475.00,0.07
1474.00,0.07
1473.00,0.07
1472.00,0.06
1471.00,0.06
1470.00,0.06
1469.00,0.05
1468.00,0.05
1467.00,0.05
1466.00,0.05
1465.00,0.05
1464.00,0.05
1463.00,0.05
1462.00,0.04
1461.00,0.04
1460.00,0.04
1459.00,0.04
1458.00,0.04
1457.00,0.04
1456.00,0.03
1455.00,0.03
1454.00,0.02
1453.00,0.02
1452.00,0.02
1451.00,0.02
1450.00,0.01
1449.00,0.02
1448.00,0.02
1447.00,0.02
1446.00,0.03
1445.00,0.04
1444.00,0.04
1443.00,0.05
1442.00,0.05
1441.00,0.05
1440.00,0.05
1439.00,0.04
1438.00,0.04
1437.00,0.04
1436.00,0.03
1435.00,0.03
1434.00,0.03
1433.00,0.03
1432.00,0.03
1431.00,0.03
1430.00,0.03
1429.00,0.02
1428.00,0.02
1427.00,0.02
1426.00,0.02
1425.00,0.03
1424.00,0.03
1423.00,0.03
1422.00,0.03
1421.00,0.03
1420.00,0.03
1419.00,0.03
1418.00,0.03
1417.00,0.04
1416.00,0.04
1415.00,0.04
1414.00,0.04
1413.00,0.04
1412.00,0.04
1411.00,0.04
1410.00,0.04
1409.00,0.04
1408.00,0.04
1407.00,0.04
1406.00,0.04
1405.00,0.04
1404.00,0.04
1403.00,0.04
1402.00,0.04
1401.00,0.04
1400.00,0.04
1399.00,0.03
1398.00,0.03
1397.00,0.03
1396.00,0.03
1395.00,0.03
1394.00,0.03
1393.00,0.03
1392.00,0.04
1391.00,0.04
1390.00,0.04
1389.00,0.04
1388.00,0.04
1387.00,0.03
1386.00,0.03
1385.00,0.04
1384.00,0.04
1383.00,0.04
1382.00,0.04
1381.00,0.04
1380.00,0.04
1379.00,0.04
1378.00,0.04
1377.00,0.04
1376.00,0.04
1375.00,0.04
1374.00,0.04
1373.00,0.04
1372.00,0.04
1371.00,0.04
1370.00,0.04
1369.00,0.04
1368.00,0.04
1367.00,0.05
1366.00,0.05
1365.00,0.05
1364.00,0.05
1363.00,0.05
1362.00,0.05
1361.00,0.05
1360.00,0.06
1359.00,0.06
1358.00,0.06
1357.00,0.07
1356.00,0.07
1355.00,0.07
1354.00,0.08
1353.00,0.08
1352.00,0.08
1351.00,0.07
1350.00,0.07
1349.00,0.06
1348.00,0.05
1347.00,0.04
1346.00,0.04
1345.00,0.04
1344.00,0.04
1343.00,0.04
1342.00,0.04
1341.00,0.04
1340.00,0.04
1339.00,0.03
1338.00,0.03
1337.00,0.03
1336.00,0.03
1335.00,0.04
1334.00,0.04
1333.00,0.05
1332.00,0.05
1331.00,0.06
1330.00,0.07
1329.00,0.07
1328.00,0.08
1327.00,0.09
1326.00,0.10
1325.00,0.10
1324.00,0.11
1323.00,0.11
1322.00,0.11
1321.00,0.10
1320.00,0.09
1319.00,0.08
1318.00,0.07
1317.00,0.05
1316.00,0.04
1315.00,0.03
1314.00,0.02
1313.00,0.02
1312.00,0.02
1311.00,0.01
1310.00,0.01
1309.00,0.02
1308.00,0.02
1307.00,0.02
1306.00,0.02
1305.00,0.03
1304.00,0.04
1303.00,0.04
1302.00,0.05
1301.00,0.06
1300.00,0.06
1299.00,0.08
1298.00,0.09
1297.00,0.10
1296.00,0.12
1295.00,0.14
1294.00,0.16
1293.00,0.19
1292.00,0.23
1291.00,0.26
1290.00,0.31
1289.00,0.36
1288.00,0.41
1287.00,0.46
1286.00,0.51
1285.00,0.54
1284.00,0.56
1283.00,0.56
1282.00,0.54
1281.00,0.50
1280.00,0.46
1279.00,0.42
1278.00,0.37
1277.00,0.33
1276.00,0.29
1275.00,0.26
1274.00,0.23
1273.00,0.20
1272.00,0.18
1271.00,0.16
1270.00,0.14
1269.00,0.13
1268.00,0.11
1267.00,0.10
1266.00,0.10
1265.00,0.09
1264.00,0.09
1263.00,0.09
1262.00,0.09
1261.00,0.09
1260.00,0.08
1259.00,0.08
1258.00,0.08
1257.00,0.07
1256.00,0.06
1255.00,0.06
1254.00,0.06
1253.00,0.05
1252.00,0.05
1251.00,0.05
1250.00,0.04
1249.00,0.04
1248.00,0.04
1247.00,0.04
1246.00,0.04
1245.00,0.03
1244.00,0.03
1243.00,0.03
1242.00,0.03
1241.00,0.03
1240.00,0.03
1239.00,0.03
1238.00,0.02
1237.00,0.02
1236.00,0.02
1235.00,0.02
1234.00,0.02
1233.00,0.02
1232.00,0.01
1231.00,0.01
1230.00,0.01
1229.00,0.01
1228.00,0.01
1227.00,0.01
1226.00,0.01
1225.00,0.01
1224.00,0.01
1223.00,0.01
1222.00,0.01
1221.00,0.01
1220.00,0.01
1219.00,0.01
1218.00,0.01
1217.00,0.02
1216.00,0.03
1215.00,0.03
1214.00,0.03
1213.00,0.04
1212.00,0.03
1211.00,0.03
1210.00,0.03
1209.00,0.03
1208.00,0.03
1207.00,0.03
1206.00,0.03
1205.00,0.03
1204.00,0.03
1203.00,0.02
1202.00,0.02
1201.00,0.03
1200.00,0.03
1199.00,0.03
1198.00,0.02
1197.00,0.02
1196.00,0.02
1195.00,0.02
1194.00,0.02
1193.00,0.02
1192.00,0.02
1191.00,0.02
1190.00,0.02
1189.00,0.02
1188.00,0.02
1187.00,0.02
1186.00,0.02
1185.00,0.02
1184.00,0.02
1183.00,0.02
1182.00,0.01
1181.00,0.01
1180.00,0.01
1179.00,0.01
1178.00,0.01
1177.00,0.02
1176.00,0.02
1175.00,0.02
1174.00,0.02
1173.00,0.02
1172.00,0.01
1171.00,0.01
1170.00,0.01
1169.00,0.02
1168.00,0.02
1167.00,0.02
1166.00,0.01
1165.00,0.01
1164.00,0.01
1163.00,0.01
1162.00,0.02
1161.00,0.02
1160.00,0.02
1159.00,0.02
1158.00,0.02
1157.00,0.01
1156.00,0.01
1155.00,0.02
1154.00,0.02
1153.00,0.02
1152.00,0.02
1151.00,0.02
1150.00,0.02
1149.00,0.02
1148.00,0.01
1147.00,0.01
1146.00,0.01
1145.00,0.01
1144.00,0.01
1143.00,0.02
1142.00,0.02
1141.00,0.02
1140.00,0.02
1139.00,0.02
1138.00,0.02
1137.00,0.02
1136.00,0.02
1135.00,0.03
1134.00,0.03
1133.00,0.03
1132.00,0.03
1131.00,0.03
1130.00,0.03
1129.00,0.03
1128.00,0.03
1127.00,0.03
1126.00,0.03
1125.00,0.03
1124.00,0.02
1123.00,0.02
1122.00,0.01
1121.00,0.01
1120.00,0.01
1119.00,0.01
1118.00,0.01
1117.00,0.01
1116.00,0.01
1115.00,0.01
1114.00,0.00
1113.00,0.00
1112.00,0.00
1111.00,0.01
1110.00,0.01
1109.00,0.01
1108.00,0.01
1107.00,0.01
1106.00,0.01
1105.00,0.02
1104.00,0.02
1103.00,0.02
1102.00,0.02
1101.00,0.02
1100.00,0.03
1099.00,0.03
1098.00,0.03
1097.00,0.03
1096.00,0.03
1095.00,0.03
1094.00,0.04
1093.00,0.04
1092.00,0.04
1091.00,0.04
1090.00,0.05
1089.00,0.05
1088.00,0.06
1087.00,0.06
1086.00,0.06
1085.00,0.06
1084.00,0.07
1083.00,0.08
1082.00,0.08
1081.00,0.09
1080.00,0.09
1079.00,0.10
1078.00,0.10
1077.00,0.09
1076.00,0.09
1075.00,0.09
1074.00,0.08
1073.00,0.08
1072.00,0.08
1071.00,0.07
1070.00,0.07
1069.00,0.07
1068.00,0.07
1067.00,0.07
1066.00,0.07
1065.00,0.06
1064.00,0.06
1063.00,0.06
1062.00,0.05
1061.00,0.05
1060.00,0.05
1059.00,0.04
1058.00,0.04
1057.00,0.03
1056.00,0.03
1055.00,0.03
1054.00,0.03
1053.00,0.03
1052.00,0.03
1051.00,0.03
1050.00,0.03
1049.00,0.03
1048.00,0.04
1047.00,0.04
1046.00,0.04
1045.00,0.04
1044.00,0.04
1043.00,0.04
1042.00,0.04
1041.00,0.04
1040.00,0.04
1039.00,0.03
1038.00,0.03
1037.00,0.03
1036.00,0.03
1035.00,0.03
1034.00,0.03
1033.00,0.02
1032.00,0.02
1031.00,0.02
1030.00,0.01
1029.00,0.01
1028.00,0.01
1027.00,0.02
1026.00,0.02
1025.00,0.02
1024.00,0.02
1023.00,0.02
1022.00,0.01
1021.00,0.01
1020.00,0.01
1019.00,0.01
1018.00,0.01
1017.00,0.01
1016.00,0.01
1015.00,0.01
1014.00,0.01
1013.00,0.01
1012.00,0.01
1011.00,0.01
1010.00,0.01
1009.00,0.01
1008.00,0.01
1007.00,0.01
1006.00,0.01
1005.00,0.01
1004.00,0.01
1003.00,0.01
1002.00,0.01
1001.00,0.01
1000.00,0.01
999.00,0.01
998.00,0.01
997.00,0.01
996.00,0.01
995.00,0.01
994.00,0.01
993.00,0.01
992.00,0.01
991.00,0.01
990.00,0.01
989.00,0.01
988.00,0.00
987.00,0.00
986.00,0.00
985.00,0.00
984.00,0.01
983.00,0.01
982.00,0.01
981.00,0.01
980.00,0.00
979.00,0.00
978.00,0.00
977.00,0.00
976.00,0.00
975.00,0.00
974.00,0.00
973.00,0.00
972.00,0.00
971.00,0.01
970.00,0.01
969.00,0.00
968.00,0.00
967.00,0.00
966.00,0.00
965.00,0.00
964.00,0.00
963.00,0.00
962.00,0.00
961.00,0.00
960.00,0.00
959.00,0.00
958.00,0.00
957.00,0.00
956.00,0.01
955.00,0.01
954.00,0.01
953.00,0.01
952.00,0.01
951.00,0.01
950.00,0.01
949.00,0.01
948.00,0.01
947.00,0.01
946.00,0.01
945.00,0.00
944.00,0.00
943.00,0.00
942.00,0.00
941.00,0.00
940.00,0.00
939.00,0.00
938.00,0.01
937.00,0.01
936.00,0.01
935.00,0.00
934.00,0.00
933.00,0.00
932.00,0.01
931.00,0.01
930.00,0.01
929.00,0.01
928.00,0.00
927.00,0.00
926.00,0.00
925.00,0.00
924.00,0.00
923.00,0.00
922.00,0.00
921.00,0.00
920.00,0.00
919.00,0.00
918.00,0.01
917.00,0.01
916.00,0.01
915.00,0.01
914.00,0.01
913.00,0.01
912.00,0.01
911.00,0.01
910.00,0.01
909.00,0.01
908.00,0.01
907.00,0.01
906.00,0.01
905.00,0.01
904.00,0.01
903.00,0.01
902.00,0.01
901.00,0.01
900.00,0.01
899.00,0.01
898.00,0.01
897.00,0.01
896.00,0.01
895.00,0.01
894.00,0.01
893.00,0.01
892.00,0.01
891.00,0.01
890.00,0.01
889.00,0.01
888.00,0.01
887.00,0.01
886.00,0.00
885.00,0.00
884.00,0.00
883.00,0.00
882.00,0.01
881.00,0.01
880.00,0.01
879.00,0.01
878.00,0.01
877.00,0.01
876.00,0.01
875.00,0.01
874.00,0.01
873.00,0.00
872.00,0.00
871.00,0.00
870.00,0.01
869.00,0.01
868.00,0.01
867.00,0.01
866.00,0.01
865.00,0.01
864.00,0.01
863.00,0.01
862.00,0.01
861.00,0.01
860.00,0.00
859.00,0.01
858.00,0.01
857.00,0.01
856.00,0.00
855.00,0.00
854.00,0.00
853.00,0.00
852.00,0.00
851.00,0.01
850.00,0.01
849.00,0.01
848.00,0.01
847.00,0.01
846.00,0.01
845.00,0.01
844.00,0.01
843.00,0.01
842.00,0.01
841.00,0.01
840.00,0.01
839.00,0.01
838.00,0.01
837.00,0.01
836.00,0.00
835.00,0.01
834.00,0.01
833.00,0.01
832.00,0.01
831.00,0.01
830.00,0.00
829.00,0.00
828.00,0.00
827.00,0.01
826.00,0.01
825.00,0.01
824.00,0.01
823.00,0.01
822.00,0.01
821.00,0.00
820.00,0.00
819.00,0.01
818.00,0.00
817.00,0.00
816.00,0.00
815.00,0.01
814.00,0.01
813.00,0.01
812.00,0.01
811.00,0.01
810.00,0.01
809.00,0.01
808.00,0.01
807.00,0.01
806.00,0.01
805.00,0.01
804.00,0.01
803.00,0.01
802.00,0.01
801.00,0.01
800.00,0.01
799.00,0.01
798.00,0.01
797.00,0.01
796.00,0.00
795.00,0.01
794.00,0.01
793.00,0.01
792.00,0.01
791.00,0.01
790.00,0.01
789.00,0.01
788.00,0.02
787.00,0.01
786.00,0.01
785.00,0.01
784.00,0.01
783.00,0.01
782.00,0.01
781.00,0.01
780.00,0.01
779.00,0.01
778.00,0.01
777.00,0.00
776.00,0.00
775.00,0.00
774.00,0.00
773.00,0.00
772.00,0.00
771.00,0.00
770.00,0.01
769.00,0.01
768.00,0.00
767.00,0.01
766.00,0.01
765.00,0.01
764.00,0.01
763.00,0.01
762.00,0.01
761.00,0.01
760.00,0.01
759.00,0.01
758.00,0.00
757.00,0.00
756.00,0.00
755.00,0.00
754.00,0.01
753.00,0.01
752.00,0.02
751.00,0.02
750.00,0.02
749.00,0.01
748.00,0.01
747.00,0.01
746.00,0.01
745.00,0.01
744.00,0.01
743.00,0.01
742.00,0.00
741.00,0.00
740.00,0.00
739.00,0.01
738.00,0.01
737.00,0.01
736.00,0.01
735.00,0.01
734.00,0.01
733.00,0.01
732.00,0.01
731.00,0.01
730.00,0.01
729.00,0.01
728.00,0.01
727.00,0.01
726.00,0.01
725.00,0.01
724.00,0.01
723.00,0.01
722.00,0.01
721.00,0.01
720.00,0.01
719.00,0.01
718.00,0.01
717.00,0.01
716.00,0.01
715.00,0.01
714.00,0.01
713.00,0.01
712.00,0.01
711.00,0.01
710.00,0.01
709.00,0.01
708.00,0.01
707.00,0.01
706.00,0.01
705.00,0.01
704.00,0.01
703.00,0.01
702.00,0.01
701.00,0.01
700.00,0.01
699.00,0.01
698.00,0.01
697.00,0.01
696.00,0.01
695.00,0.01
694.00,0.01
693.00,0.01
692.00,0.01
691.00,0.01
690.00,0.01
689.00,0.01
688.00,0.01
687.00,0.00
686.00,0.01
685.00,0.01
684.00,0.01
683.00,0.01
682.00,0.01
681.00,0.01
680.00,0.00
679.00,0.01
678.00,0.01
677.00,0.01
676.00,0.01
675.00,0.01
674.00,0.01
673.00,0.01
672.00,0.01
671.00,0.01
670.00,0.01
669.00,0.01
668.00,0.01
667.00,0.01
666.00,0.01
665.00,0.01
664.00,0.01
663.00,0.01
662.00,0.01
661.00,0.01
660.00,0.01
659.00,0.01
658.00,0.01
657.00,0.01
656.00,0.01
655.00,0.01
654.00,0.01
653.00,0.01
652.00,0.01
651.00,0.01
650.00,0.01
649.00,0.01
648.00,0.01
647.00,0.01
646.00,0.01
645.00,0.01
644.00,0.01
643.00,0.00
642.00,0.00
641.00,0.01
640.00,0.01
639.00,0.01
638.00,0.01
637.00,0.01
636.00,0.01
635.00,0.01
634.00,0.00
633.00,0.00
632.00,0.01
631.00,0.01
630.00,0.00
629.00,0.00
628.00,0.00
627.00,0.00
626.00,0.00
625.00,0.01
624.00,0.01
623.00,0.01
622.00,0.01
621.00,0.01
620.00,0.01
619.00,0.02
618.00,0.02
617.00,0.02
616.00,0.02
615.00,0.02
614.00,0.01
613.00,0.01
612.00,0.01
611.00,0.01
610.00,0.01
609.00,0.01
608.00,0.01
607.00,0.02
606.00,0.02
605.00,0.02
604.00,0.02
603.00,0.02
602.00,0.01
601.00,0.01
600.00,0.01
599.00,0.01
598.00,0.01
597.00,0.01
596.00,0.01
595.00,0.01
594.00,0.01
593.00,0.01
592.00,0.01
591.00,0.01
590.00,0.01
589.00,0.00
588.00,0.00
587.00,0.00
586.00,0.00
585.00,0.01
584.00,0.01
583.00,0.01
582.00,0.01
581.00,0.01
580.00,0.01
579.00,0.01
578.00,0.00
577.00,0.00
576.00,0.01
575.00,0.01
574.00,0.01
573.00,0.01
572.00,0.01
571.00,0.01
570.00,0.02
569.00,0.02
568.00,0.02
567.00,0.02
566.00,0.02
565.00,0.02
564.00,0.03
563.00,0.02
562.00,0.02
561.00,0.02
560.00,0.02
559.00,0.02
558.00,0.02
557.00,0.02
556.00,0.02
555.00,0.02
554.00,0.01
553.00,0.01
552.00,0.01
551.00,0.01
550.00,0.01
549.00,0.01
548.00,0.00
547.00,0.01
546.00,0.01
545.00,0.00
544.00,0.01
543.00,0.02
542.00,0.03
541.00,0.02
540.00,0.01
539.00,0.01
538.00,0.01
537.00,0.02
536.00,0.03
535.00,0.04
534.00,0.04
533.00,0.03
532.00,0.02
531.00,0.01
530.00,0.01
529.00,0.02
528.00,0.02
527.00,0.02
526.00,0.01
525.00,0.01
524.00,0.02
523.00,0.03
522.00,0.03
521.00,0.04
520.00,0.03
519.00,0.03
518.00,0.03
517.00,0.03
516.00,0.03
515.00,0.03
514.00,0.04
513.00,0.04
512.00,0.04
511.00,0.04
510.00,0.04
509.00,0.03
508.00,0.02
507.00,0.02
506.00,0.01
505.00,0.01
504.00,0.01
503.00,0.01
502.00,0.01
501.00,0.01
500.00,0.01
499.00,0.01
498.00,0.03
497.00,0.04
496.00,0.05
495.00,0.04
494.00,0.03
493.00,0.04
492.00,0.05
491.00,0.06
490.00,0.05
489.00,0.04
488.00,0.05
487.00,0.06
486.00,0.05
485.00,0.03
484.00,0.03
483.00,0.03
482.00,0.01
481.00,0.02
480.00,0.04
479.00,0.06
478.00,0.08
477.00,0.09
476.00,0.08
475.00,0.04
474.00,0.02
473.00,0.04
472.00,0.06
471.00,0.07
470.00,0.07
469.00,0.07
468.00,0.07
467.00,0.07
466.00,0.06
465.00,0.05
464.00,0.04
463.00,0.03
462.00,0.03
461.00,0.04
460.00,0.03
459.00,0.02
458.00,0.03
457.00,0.04
456.00,0.04
455.00,0.03
454.00,0.01
453.00,0.02
452.00,0.02
451.00,0.02
450.00,0.01
449.00,0.00
448.00,0.01
447.00,0.02
446.00,0.01
445.00,0.00
444.00,0.00
443.00,0.01
442.00,0.03
441.00,0.06
440.00,0.08
439.00,0.09
438.00,0.09
437.00,0.08
436.00,0.09
435.00,0.09
434.00,0.09
433.00,0.08
432.00,0.09
431.00,0.10
430.00,0.11
429.00,0.11
428.00,0.11
427.00,0.12
426.00,0.13
425.00,0.13
424.00,0.14
423.00,0.15
422.00,0.15
421.00,0.13
420.00,0.11
419.00,0.10
418.00,0.08
417.00,0.06
416.00,0.06
415.00,0.07
414.00,0.06
413.00,0.07
412.00,0.09
411.00,0.11
410.00,0.11
409.00,0.10
408.00,0.10
407.00,0.08
406.00,0.06
405.00,0.06
404.00,0.06
403.00,0.08
402.00,0.12
401.00,0.16
400.00,0.18
