;cavity_after;
Wavenumbers [1/cm];Transmittance;
7496,969;0,1261313;
7495,040;0,1287978;
7493,112;0,1297107;
7491,183;0,1286483;
7489,254;0,1285428;
7487,326;0,1318751;
7485,397;0,1361035;
7483,468;0,138599;
7481,539;0,140191;
7479,611;0,1417227;
7477,682;0,1431672;
7475,753;0,1446603;
7473,824;0,1460213;
7471,896;0,1472408;
7469,967;0,1489601;
7468,038;0,1509517;
7466,110;0,1522032;
7464,181;0,1533459;
7462,252;0,1556244;
7460,323;0,1581912;
7458,395;0,1601152;
7456,466;0,1618157;
7454,537;0,1632602;
7452,608;0,1646927;
7450,680;0,1668943;
7448,751;0,1693094;
7446,822;0,1710507;
7444,893;0,1726157;
7442,965;0,1745748;
7441,036;0,1764199;
7439,107;0,1777898;
7437,179;0,1791006;
7435,250;0,1805741;
7433,321;0,182054;
7431,392;0,1837582;
7429,464;0,1855334;
7427,535;0,1860974;
7425,606;0,1857935;
7423,677;0,1868927;
7421,749;0,1892283;
7419,820;0,1913049;
7417,891;0,1934426;
7415,963;0,1956569;
7414,034;0,1971905;
7412,105;0,1982444;
7410,176;0,199347;
7408,248;0,2000943;
7406,319;0,2000187;
7404,390;0,2001518;
7402,461;0,2014199;
7400,533;0,2029178;
7398,604;0,2038984;
7396,675;0,204973;
7394,747;0,2062762;
7392,818;0,2072581;
7390,889;0,2080508;
7388,960;0,208785;
7387,032;0,2088928;
7385,103;0,208262;
7383,174;0,2080751;
7381,245;0,2085355;
7379,317;0,2079882;
7377,388;0,2070504;
7375,459;0,2076819;
7373,531;0,2089571;
7371,602;0,209488;
7369,673;0,2096077;
7367,744;0,2097159;
7365,816;0,2098148;
7363,887;0,2098672;
7361,958;0,2097003;
7360,029;0,2091343;
7358,101;0,208007;
7356,172;0,2060579;
7354,243;0,2036535;
7352,314;0,2022039;
7350,386;0,2025894;
7348,457;0,2037298;
7346,528;0,2038935;
7344,600;0,2024138;
7342,671;0,2001186;
7340,742;0,1987415;
7338,813;0,1986135;
7336,885;0,1985337;
7334,956;0,1980522;
7333,027;0,1974307;
7331,098;0,1966365;
7329,170;0,1952142;
7327,241;0,1931639;
7325,312;0,1912938;
7323,384;0,1899795;
7321,455;0,188919;
7319,526;0,1877586;
7317,597;0,1860951;
7315,669;0,1837008;
7313,740;0,1813699;
7311,811;0,180126;
7309,882;0,1794068;
7307,954;0,1782626;
7306,025;0,1769018;
7304,096;0,1755101;
7302,168;0,1735813;
7300,239;0,171072;
7298,310;0,1688518;
7296,381;0,1672701;
7294,453;0,1659036;
7292,524;0,1648287;
7290,595;0,1640338;
7288,666;0,1628637;
7286,738;0,1612141;
7284,809;0,1593449;
7282,880;0,1572666;
7280,952;0,1554597;
7279,023;0,1540137;
7277,094;0,1521844;
7275,165;0,1502043;
7273,237;0,1487273;
7271,308;0,1473748;
7269,379;0,1458291;
7267,450;0,1443718;
7265,522;0,1429935;
7263,593;0,1414076;
7261,664;0,1394798;
7259,736;0,1372632;
7257,807;0,1353263;
7255,878;0,134203;
7253,949;0,1335591;
7252,021;0,1328039;
7250,092;0,1314863;
7248,163;0,1295734;
7246,234;0,1277747;
7244,306;0,1263886;
7242,377;0,1248381;
7240,448;0,1230659;
7238,519;0,121785;
7236,591;0,1210171;
7234,662;0,1199728;
7232,733;0,1184323;
7230,805;0,1168162;
7228,876;0,1152008;
7226,947;0,1135112;
7225,018;0,1119998;
7223,090;0,1105865;
7221,161;0,1089996;
7219,232;0,1075865;
7217,303;0,1065108;
7215,375;0,1055825;
7213,446;0,104876;
7211,517;0,1041161;
7209,589;0,1031168;
7207,660;0,1021628;
7205,731;0,1010596;
7203,802;0,09963053;
7201,874;0,09827852;
7199,945;0,09726131;
7198,016;0,09640647;
7196,087;0,09554312;
7194,159;0,09471507;
7192,230;0,09390221;
7190,301;0,09314794;
7188,373;0,09245949;
7186,444;0,09143034;
7184,515;0,09007113;
7182,586;0,0889801;
7180,658;0,088006;
7178,729;0,086889;
7176,800;0,08610085;
7174,871;0,08541187;
7172,943;0,08445513;
7171,014;0,08376942;
7169,085;0,08338887;
7167,157;0,08278764;
7165,228;0,08202511;
7163,299;0,08135624;
7161,370;0,08068345;
7159,442;0,08014902;
7157,513;0,0797516;
7155,584;0,07884135;
7153,655;0,07759302;
7151,727;0,07681245;
7149,798;0,07652731;
7147,869;0,0763697;
7145,941;0,07599369;
7144,012;0,07525065;
7142,083;0,0744538;
7140,154;0,07392325;
7138,226;0,0735122;
7136,297;0,07288221;
7134,368;0,07207454;
7132,439;0,07137575;
7130,511;0,07085229;
7128,582;0,07061049;
7126,653;0,07061718;
7124,724;0,07028259;
7122,796;0,06947973;
7120,867;0,06877599;
7118,938;0,06845836;
7117,010;0,06842493;
7115,081;0,06827343;
7113,152;0,06765091;
7111,223;0,0668715;
7109,295;0,06645269;
7107,366;0,06623577;
7105,437;0,06598677;
7103,508;0,0658183;
7101,580;0,06549077;
7099,651;0,06484637;
7097,722;0,06419579;
7095,794;0,06384041;
7093,865;0,06384356;
7091,936;0,06387978;
7090,007;0,06357562;
7088,079;0,06305709;
7086,150;0,06285714;
7084,221;0,06302349;
7082,292;0,06292984;
7080,364;0,06247455;
7078,435;0,06208233;
7076,506;0,06188867;
7074,578;0,06193996;
7072,649;0,06210217;
7070,720;0,06202015;
7068,791;0,06179833;
7066,863;0,06174232;
7064,934;0,06168068;
7063,005;0,06156915;
7061,076;0,06159621;
7059,148;0,06154421;
7057,219;0,06134579;
7055,290;0,06140652;
7053,362;0,06167449;
7051,433;0,06157994;
7049,504;0,06108947;
7047,575;0,06077544;
7045,647;0,06078617;
7043,718;0,0608127;
7041,789;0,06081572;
7039,860;0,06091488;
7037,932;0,06115345;
7036,003;0,0614024;
7034,074;0,06143167;
7032,146;0,06121905;
7030,217;0,0608967;
7028,288;0,06075078;
7026,359;0,0608821;
7024,431;0,06105985;
7022,502;0,06129021;
7020,573;0,06160368;
7018,644;0,06182014;
7016,716;0,06190591;
7014,787;0,0619041;
7012,858;0,06183981;
7010,929;0,06183751;
7009,001;0,0619718;
7007,072;0,06214949;
7005,143;0,0622915;
7003,215;0,06227504;
7001,286;0,06213833;
6999,357;0,06231054;
6997,428;0,06279007;
6995,500;0,06301305;
6993,571;0,06294388;
6991,642;0,06308506;
6989,713;0,06352938;
6987,785;0,06396294;
6985,856;0,06425025;
6983,927;0,06446452;
6981,999;0,06475484;
6980,070;0,06517845;
6978,141;0,0655013;
6976,212;0,06557272;
6974,284;0,06555595;
6972,355;0,06558605;
6970,426;0,06582715;
6968,497;0,06644562;
6966,569;0,06713332;
6964,640;0,0674822;
6962,711;0,06763509;
6960,783;0,06783312;
6958,854;0,06812876;
6956,925;0,06865941;
6954,996;0,06931755;
6953,068;0,0697744;
6951,139;0,0700952;
6949,210;0,07051662;
6947,281;0,07094143;
6945,353;0,07125006;
6943,424;0,07171816;
6941,495;0,07247227;
6939,567;0,07308182;
6937,638;0,07339206;
6935,709;0,07385323;
6933,780;0,07470877;
6931,852;0,07569765;
6929,923;0,07653854;
6927,994;0,07710247;
6926,065;0,07745713;
6924,137;0,07802474;
6922,208;0,07871416;
6920,279;0,0789549;
6918,350;0,07922932;
6916,422;0,08039901;
6914,493;0,08198484;
6912,564;0,08304031;
6910,636;0,08370312;
6908,707;0,08452041;
6906,778;0,0854588;
6904,849;0,08628871;
6902,921;0,0867926;
6900,992;0,08700474;
6899,063;0,08744395;
6897,134;0,08844727;
6895,206;0,08978149;
6893,277;0,0909561;
6891,348;0,09187511;
6889,420;0,09288733;
6887,491;0,09400366;
6885,562;0,09495764;
6883,633;0,0958254;
6881,705;0,09689932;
6879,776;0,09810788;
6877,847;0,09915564;
6875,918;0,1001947;
6873,990;0,1015996;
6872,061;0,1032418;
6870,132;0,1046305;
6868,204;0,1056434;
6866,275;0,1065808;
6864,346;0,1077219;
6862,417;0,1090961;
6860,489;0,1104142;
6858,560;0,1115027;
6856,631;0,1125023;
6854,702;0,1135353;
6852,774;0,1147598;
6850,845;0,116321;
6848,916;0,1180315;
6846,988;0,1196247;
6845,059;0,1211409;
6843,130;0,1226832;
6841,201;0,1242139;
6839,273;0,1256291;
6837,344;0,1269347;
6835,415;0,1284154;
6833,486;0,1300817;
6831,558;0,1315749;
6829,629;0,1329012;
6827,700;0,134333;
6825,772;0,1359197;
6823,843;0,1375004;
6821,914;0,1390993;
6819,985;0,1408107;
6818,057;0,1424362;
6816,128;0,143968;
6814,199;0,1456126;
6812,270;0,1472892;
6810,342;0,1489738;
6808,413;0,150747;
6806,484;0,1524208;
6804,555;0,1538885;
6802,627;0,1553232;
6800,698;0,156778;
6798,769;0,1581191;
6796,841;0,1593949;
6794,912;0,1609258;
6792,983;0,1627043;
6791,054;0,1642784;
6789,126;0,1655172;
6787,197;0,1666619;
6785,268;0,1678456;
6783,339;0,1690774;
6781,411;0,1703143;
6779,482;0,1714908;
6777,553;0,1726501;
6775,625;0,1738777;
6773,696;0,1751374;
6771,767;0,1764409;
6769,838;0,1777795;
6767,910;0,1790025;
6765,981;0,1800978;
6764,052;0,1810013;
6762,123;0,1815714;
6760,195;0,1819989;
6758,266;0,1825496;
6756,337;0,1832829;
6754,409;0,1841316;
6752,480;0,1849461;
6750,551;0,1855772;
6748,622;0,1859374;
6746,694;0,1861462;
6744,765;0,1864054;
6742,836;0,1866637;
6740,907;0,186815;
6738,979;0,1869849;
6737,050;0,1872112;
6735,121;0,1871522;
6733,193;0,1867678;
6731,264;0,1865259;
6729,335;0,1863869;
6727,406;0,1860628;
6725,478;0,1857618;
6723,549;0,1854654;
6721,620;0,1848859;
6719,691;0,1841981;
6717,763;0,1835858;
6715,834;0,1828739;
6713,905;0,1820722;
6711,977;0,1812494;
6710,048;0,180272;
6708,119;0,1791832;
6706,190;0,1780838;
6704,262;0,1769052;
6702,333;0,1757197;
6700,404;0,1747363;
6698,475;0,1738431;
6696,547;0,1727381;
6694,618;0,1714495;
6692,689;0,1701307;
6690,760;0,1687562;
6688,832;0,1672833;
6686,903;0,1657767;
6684,974;0,1642871;
6683,046;0,1627271;
6681,117;0,1610903;
6679,188;0,1594916;
6677,259;0,1578467;
6675,331;0,1559857;
6673,402;0,154082;
6671,473;0,1524347;
6669,544;0,1510388;
6667,616;0,1497727;
6665,687;0,1484148;
6663,758;0,1467376;
6661,830;0,1449596;
6659,901;0,1433102;
6657,972;0,1415832;
6656,043;0,1397128;
6654,115;0,1379366;
6652,186;0,1362593;
6650,257;0,1345022;
6648,328;0,1328268;
6646,400;0,1314832;
6644,471;0,1301154;
6642,542;0,1283014;
6640,614;0,1264182;
6638,685;0,1248965;
6636,756;0,1235317;
6634,827;0,1220268;
6632,899;0,1203204;
6630,970;0,1186767;
6629,041;0,1173499;
6627,112;0,1159639;
6625,184;0,1141975;
6623,255;0,1124847;
6621,326;0,1111025;
6619,398;0,1097631;
6617,469;0,108401;
6615,540;0,1070402;
6613,611;0,1055769;
6611,683;0,104227;
6609,754;0,1029678;
6607,825;0,1015155;
6605,896;0,1001593;
6603,968;0,09911146;
6602,039;0,0980275;
6600,110;0,09671693;
6598,182;0,09535962;
6596,253;0,09415857;
6594,324;0,09309188;
6592,395;0,09202865;
6590,467;0,09087992;
6588,538;0,08972915;
6586,609;0,08878551;
6584,680;0,08796459;
6582,752;0,0871054;
6580,823;0,08627446;
6578,894;0,08537176;
6576,965;0,08431894;
6575,037;0,08337351;
6573,108;0,08262078;
6571,179;0,08182104;
6569,251;0,08088262;
6567,322;0,07993648;
6565,393;0,07908913;
6563,464;0,07834176;
6561,536;0,0776724;
6559,607;0,07709011;
6557,678;0,07649968;
6555,749;0,07577047;
6553,821;0,07495408;
6551,892;0,07417668;
6549,963;0,07347256;
6548,035;0,07283935;
6546,106;0,07225589;
6544,177;0,07153653;
6542,248;0,07064143;
6540,320;0,06982071;
6538,391;0,06912319;
6536,462;0,06861667;
6534,533;0,06836152;
6532,605;0,06799959;
6530,676;0,06736786;
6528,747;0,06671079;
6526,819;0,06622177;
6524,890;0,06580199;
6522,961;0,06524332;
6521,032;0,06467101;
6519,104;0,064292;
6517,175;0,06403939;
6515,246;0,06374936;
6513,317;0,0633714;
6511,389;0,06296224;
6509,460;0,06248635;
6507,531;0,06191633;
6505,603;0,06144816;
6503,674;0,06115073;
6501,745;0,06079867;
6499,816;0,06038956;
6497,888;0,06009334;
6495,959;0,05988042;
6494,030;0,05971994;
6492,101;0,05957432;
6490,173;0,05937065;
6488,244;0,05911057;
6486,315;0,05876627;
6484,386;0,0584053;
6482,458;0,05820203;
6480,529;0,05808488;
6478,600;0,05785839;
6476,672;0,05760083;
6474,743;0,05735913;
6472,814;0,05698937;
6470,885;0,0565555;
6468,957;0,05618759;
6467,028;0,05594183;
6465,099;0,05593451;
6463,170;0,056035;
6461,242;0,05597;
6459,313;0,05585455;
6457,384;0,05582213;
6455,456;0,05568887;
6453,527;0,05544411;
6451,598;0,05525646;
6449,669;0,05509469;
6447,741;0,05488985;
6445,812;0,05475892;
6443,883;0,05477896;
6441,954;0,0548469;
6440,026;0,05491878;
6438,097;0,05491448;
6436,168;0,0546651;
6434,240;0,05438812;
6432,311;0,05438213;
6430,382;0,05449564;
6428,453;0,05457215;
6426,525;0,05463705;
6424,596;0,05474373;
6422,667;0,05487662;
6420,738;0,05479469;
6418,810;0,05449334;
6416,881;0,05432616;
6414,952;0,05442678;
6413,024;0,05470212;
6411,095;0,05502836;
6409,166;0,05523348;
6407,237;0,05520854;
6405,309;0,05512995;
6403,380;0,05530175;
6401,451;0,05561085;
6399,522;0,05572131;
6397,594;0,05571158;
6395,665;0,0558354;
6393,736;0,05600457;
6391,808;0,05603753;
6389,879;0,05608606;
6387,950;0,05630679;
6386,021;0,05647465;
6384,093;0,05647596;
6382,164;0,05654623;
6380,235;0,05678822;
6378,306;0,05715016;
6376,378;0,05757896;
6374,449;0,05792962;
6372,520;0,05810777;
6370,591;0,05823251;
6368,663;0,05842505;
6366,734;0,05865275;
6364,805;0,05894917;
6362,877;0,05928963;
6360,948;0,05950921;
6359,019;0,05958232;
6357,090;0,05963963;
6355,162;0,05997404;
6353,233;0,06063779;
6351,304;0,0612758;
6349,375;0,06175153;
6347,447;0,06211659;
6345,518;0,06240012;
6343,589;0,06271017;
6341,661;0,06315822;
6339,732;0,06373954;
6337,803;0,06419214;
6335,874;0,06445593;
6333,946;0,06486649;
6332,017;0,06541523;
6330,088;0,06586685;
6328,159;0,06631792;
6326,231;0,06683636;
6324,302;0,06729528;
6322,373;0,06776206;
6320,445;0,06835715;
6318,516;0,06894764;
6316,587;0,0694657;
6314,658;0,07001904;
6312,730;0,07065927;
6310,801;0,07147795;
6308,872;0,07238989;
6306,943;0,07312249;
6305,015;0,07374479;
6303,086;0,07439912;
6301,157;0,07505498;
6299,229;0,0756976;
6297,300;0,07631979;
6295,371;0,07712487;
6293,442;0,07820927;
6291,514;0,07927098;
6289,585;0,08012238;
6287,656;0,08081333;
6285,727;0,08153269;
6283,799;0,08244343;
6281,870;0,08342189;
6279,941;0,08436616;
6278,013;0,08540049;
6276,084;0,08653118;
6274,155;0,08754797;
6272,226;0,08841076;
6270,298;0,08934999;
6268,369;0,09047055;
6266,440;0,09165704;
6264,511;0,09284068;
6262,583;0,09404983;
6260,654;0,09529335;
6258,725;0,09650414;
6256,796;0,09759391;
6254,868;0,09864417;
6252,939;0,09988254;
6251,010;0,1013366;
6249,082;0,1027852;
6247,153;0,1041439;
6245,224;0,1055163;
6243,295;0,1069008;
6241,367;0,1082868;
6239,438;0,1097924;
6237,509;0,111371;
6235,580;0,1127627;
6233,652;0,1139569;
6231,723;0,1152756;
6229,794;0,1168609;
6227,866;0,1185163;
6225,937;0,1200743;
6224,008;0,1216725;
6222,079;0,123476;
6220,151;0,1252953;
6218,222;0,1269441;
6216,293;0,1286084;
6214,364;0,1304353;
6212,436;0,132218;
6210,507;0,1338372;
6208,578;0,1355236;
6206,650;0,1373776;
6204,721;0,1392228;
6202,792;0,1409933;
6200,863;0,1427827;
6198,935;0,1446764;
6197,006;0,146646;
6195,077;0,1484778;
6193,148;0,150166;
6191,220;0,1519827;
6189,291;0,1538009;
6187,362;0,155384;
6185,434;0,1569874;
6183,505;0,1588528;
6181,576;0,1608046;
6179,647;0,1625574;
6177,719;0,1641593;
6175,790;0,1658009;
6173,861;0,1674131;
6171,932;0,1689701;
6170,004;0,1706482;
6168,075;0,1724408;
6166,146;0,1741176;
6164,218;0,175653;
6162,289;0,1771852;
6160,360;0,1786951;
6158,431;0,1802263;
6156,503;0,1818017;
6154,574;0,1831341;
6152,645;0,1841539;
6150,716;0,1852359;
6148,788;0,1865163;
6146,859;0,1878018;
6144,930;0,1890208;
6143,001;0,1901351;
6141,073;0,191069;
6139,144;0,191841;
6137,215;0,19252;
6135,287;0,1931686;
6133,358;0,1938051;
6131,429;0,1944206;
6129,500;0,1949843;
6127,572;0,1953943;
6125,643;0,1955839;
6123,714;0,1956801;
6121,785;0,195819;
6119,857;0,1959611;
6117,928;0,1960887;
6115,999;0,1961594;
6114,071;0,1959984;
6112,142;0,1955633;
6110,213;0,1949897;
6108,284;0,1944037;
6106,356;0,1938029;
6104,427;0,1931043;
6102,498;0,1923159;
6100,569;0,1915741;
6098,641;0,1909482;
6096,712;0,1902714;
6094,783;0,1893635;
6092,855;0,1882288;
6090,926;0,1869563;
6088,997;0,185641;
6087,068;0,1842843;
6085,140;0,182845;
6083,211;0,1813328;
6081,282;0,1797604;
6079,353;0,1781942;
6077,425;0,1766467;
6075,496;0,1749963;
6073,567;0,1732455;
6071,639;0,1714976;
6069,710;0,1697825;
6067,781;0,1681391;
6065,852;0,1664578;
6063,924;0,1644935;
6061,995;0,162351;
6060,066;0,1603312;
6058,137;0,1584165;
6056,209;0,1564356;
6054,280;0,1544239;
6052,351;0,1525533;
6050,423;0,1507988;
6048,494;0,1489606;
6046,565;0,1469999;
6044,636;0,1449874;
6042,708;0,1429445;
6040,779;0,1409354;
6038,850;0,1389776;
6036,921;0,1369855;
6034,993;0,1350016;
6033,064;0,1330785;
6031,135;0,1310536;
6029,206;0,1289031;
6027,278;0,1269048;
6025,349;0,1251585;
6023,420;0,1234536;
6021,492;0,1216556;
6019,563;0,1197892;
6017,634;0,1178935;
6015,705;0,1160702;
6013,777;0,1144352;
6011,848;0,1129382;
6009,919;0,1114109;
6007,990;0,1097649;
6006,062;0,1080715;
6004,133;0,1064096;
6002,204;0,1047762;
6000,276;0,1032301;
5998,347;0,1017712;
5996,418;0,1002456;
5994,489;0,09861885;
5992,561;0,09704435;
5990,632;0,09565663;
5988,703;0,09443285;
5986,774;0,09330814;
5984,846;0,09216668;
5982,917;0,09082426;
5980,988;0,08940998;
5979,060;0,08815106;
5977,131;0,08692366;
5975,202;0,08565218;
5973,273;0,08449576;
5971,345;0,08345194;
5969,416;0,08236224;
5967,487;0,08116988;
5965,558;0,07994184;
5963,630;0,07885925;
5961,701;0,07797864;
5959,772;0,07706731;
5957,844;0,07599901;
5955,915;0,07492899;
5953,986;0,07401086;
5952,057;0,07316391;
5950,129;0,07224136;
5948,200;0,07134829;
5946,271;0,07062115;
5944,342;0,06991898;
5942,414;0,06909652;
5940,485;0,06824046;
5938,556;0,06745982;
5936,627;0,06678694;
5934,699;0,06616294;
5932,770;0,0654477;
5930,841;0,06465542;
5928,913;0,06392212;
5926,984;0,06327415;
5925,055;0,06263862;
5923,126;0,06199875;
5921,198;0,06132174;
5919,269;0,06052015;
5917,340;0,05975923;
5915,411;0,05922206;
5913,483;0,05878046;
5911,554;0,05832257;
5909,625;0,05787224;
5907,697;0,05743507;
5905,768;0,05697249;
5903,839;0,05647011;
5901,910;0,05598977;
5899,982;0,05559206;
5898,053;0,05522057;
5896,124;0,05480432;
5894,195;0,05440668;
5892,267;0,05406744;
5890,338;0,05373535;
5888,409;0,05334561;
5886,481;0,05287055;
5884,552;0,05240963;
5882,623;0,05204186;
5880,694;0,05171856;
5878,766;0,05141256;
5876,837;0,05114716;
5874,908;0,05092298;
5872,979;0,05074099;
5871,051;0,05055883;
5869,122;0,05027027;
5867,193;0,04988969;
5865,265;0,04952639;
5863,336;0,04919326;
5861,407;0,04883793;
5859,478;0,04850942;
5857,550;0,0482983;
5855,621;0,04812815;
5853,692;0,04796581;
5851,763;0,04788854;
5849,835;0,04780455;
5847,906;0,0476495;
5845,977;0,04749483;
5844,049;0,04730147;
5842,120;0,04704453;
5840,191;0,04684263;
5838,262;0,04675462;
5836,334;0,04673894;
5834,405;0,04675687;
5832,476;0,04672435;
5830,547;0,04658476;
5828,619;0,0464423;
5826,690;0,0463695;
5824,761;0,04634202;
5822,832;0,04638286;
5820,904;0,04645083;
5818,975;0,04639918;
5817,046;0,04619883;
5815,118;0,04600595;
5813,189;0,04591025;
5811,260;0,04585258;
5809,331;0,04583512;
5807,403;0,04587834;
5805,474;0,04595631;
5803,545;0,04599833;
5801,616;0,04588291;
5799,688;0,04567357;
5797,759;0,04559052;
5795,830;0,04572431;
5793,902;0,04598049;
5791,973;0,04615714;
5790,044;0,04617909;
5788,115;0,04619791;
5786,187;0,04627716;
5784,258;0,04630658;
5782,329;0,04627348;
5780,400;0,04623627;
5778,472;0,04622012;
5776,543;0,04630135;
5774,614;0,04651526;
5772,686;0,04673415;
5770,757;0,04683091;
5768,828;0,04687415;
5766,899;0,04695972;
5764,971;0,04703808;
5763,042;0,04708637;
5761,113;0,04720114;
5759,184;0,04745352;
5757,256;0,04777272;
5755,327;0,04801285;
5753,398;0,0481024;
5751,470;0,04814018;
5749,541;0,04825702;
5747,612;0,0484397;
5745,683;0,04874191;
5743,755;0,04919387;
5741,826;0,04953483;
5739,897;0,04968059;
5737,968;0,04985685;
5736,040;0,05008813;
5734,111;0,05029342;
5732,182;0,05057909;
5730,254;0,05096143;
5728,325;0,05125106;
5726,396;0,05144211;
5724,467;0,05174016;
5722,539;0,05213918;
5720,610;0,05246209;
5718,681;0,05273269;
5716,752;0,05306202;
5714,824;0,05345065;
5712,895;0,05390011;
5710,966;0,054329;
5709,037;0,05466237;
5707,109;0,05506659;
5705,180;0,0556355;
5703,251;0,05627468;
5701,323;0,0568995;
5699,394;0,05742418;
5697,465;0,05785023;
5695,536;0,05826823;
5693,608;0,05872162;
5691,679;0,05920067;
5689,750;0,05973652;
5687,821;0,06039204;
5685,893;0,06108506;
5683,964;0,06168846;
5682,035;0,06228402;
5680,107;0,06296903;
5678,178;0,06362131;
5676,249;0,06420568;
5674,320;0,06488197;
5672,392;0,06563485;
5670,463;0,06635585;
5668,534;0,06712048;
5666,605;0,06804379;
5664,677;0,06904604;
5662,748;0,06993761;
5660,819;0,07070126;
5658,891;0,07145217;
5656,962;0,07223534;
5655,033;0,07303606;
5653,104;0,07393575;
5651,176;0,07503665;
5649,247;0,07620271;
5647,318;0,07727422;
5645,389;0,07828997;
5643,461;0,0792842;
5641,532;0,08026463;
5639,603;0,08127482;
5637,675;0,08233799;
5635,746;0,08352022;
5633,817;0,08484484;
5631,888;0,08614992;
5629,960;0,08735953;
5628,031;0,08858238;
5626,102;0,08987002;
5624,173;0,09122153;
5622,245;0,0926346;
5620,316;0,09408634;
5618,387;0,09555624;
5616,459;0,0970524;
5614,530;0,09858171;
5612,601;0,1000812;
5610,672;0,1015109;
5608,744;0,102992;
5606,815;0,1046997;
5604,886;0,106538;
5602,957;0,1082721;
5601,029;0,1099977;
5599,100;0,1118292;
5597,171;0,1136303;
5595,242;0,1154266;
5593,314;0,1173408;
5591,385;0,1192984;
5589,456;0,1211812;
5587,528;0,1230187;
5585,599;0,1249308;
5583,670;0,1269125;
5581,741;0,128921;
5579,813;0,1310032;
5577,884;0,1330968;
5575,955;0,1351403;
5574,026;0,1372078;
5572,098;0,1393498;
5570,169;0,1415292;
5568,240;0,1436769;
5566,312;0,1458386;
5564,383;0,148023;
5562,454;0,150123;
5560,525;0,1522094;
5558,597;0,1544024;
5556,668;0,1566532;
5554,739;0,1588605;
5552,810;0,1609572;
5550,882;0,1629663;
5548,953;0,1650063;
5547,024;0,1671419;
5545,096;0,1692835;
5543,167;0,1713316;
5541,238;0,1732505;
5539,309;0,1750274;
5537,381;0,1767754;
5535,452;0,1785979;
5533,523;0,1803792;
5531,594;0,1820284;
5529,666;0,1836091;
5527,737;0,185147;
5525,808;0,186568;
5523,880;0,1877827;
5521,951;0,1888899;
5520,022;0,1900751;
5518,093;0,1912521;
5516,165;0,1922612;
5514,236;0,1931718;
5512,307;0,1940325;
5510,378;0,1947044;
5508,450;0,1951736;
5506,521;0,1956161;
5504,592;0,1960519;
5502,663;0,1963643;
5500,735;0,1965262;
5498,806;0,1965696;
5496,877;0,1964852;
5494,949;0,1962537;
5493,020;0,1959135;
5491,091;0,1954428;
5489,162;0,1947681;
5487,234;0,1939696;
5485,305;0,1931608;
5483,376;0,1923289;
5481,447;0,1914035;
5479,519;0,1902657;
5477,590;0,1889222;
5475,661;0,1875905;
5473,733;0,1863124;
5471,804;0,1849638;
5469,875;0,1835421;
5467,946;0,181966;
5466,018;0,180092;
5464,089;0,1780288;
5462,160;0,1760085;
5460,231;0,1741049;
5458,303;0,1721945;
5456,374;0,1701879;
5454,445;0,1681739;
5452,517;0,1661366;
5450,588;0,1639859;
5448,659;0,1618112;
5446,730;0,1596102;
5444,802;0,1573162;
5442,873;0,155031;
5440,944;0,152805;
5439,015;0,1505904;
5437,087;0,1483037;
5435,158;0,1459167;
5433,229;0,1435491;
5431,301;0,1412303;
5429,372;0,1389345;
5427,443;0,1367387;
5425,514;0,1346058;
5423,586;0,1324019;
5421,657;0,1301506;
5419,728;0,1279898;
5417,799;0,125887;
5415,871;0,123667;
5413,942;0,1213946;
5412,013;0,1192609;
5410,085;0,11721;
5408,156;0,1151596;
5406,227;0,1131833;
5404,298;0,1112926;
5402,370;0,1094003;
5400,441;0,1074418;
5398,512;0,1054392;
5396,583;0,103511;
5394,655;0,1017455;
5392,726;0,1000779;
5390,797;0,09841821;
5388,868;0,09676488;
5386,940;0,09511191;
5385,011;0,09345627;
5383,082;0,09183406;
5381,154;0,0902439;
5379,225;0,08865044;
5377,296;0,08708736;
5375,367;0,08565398;
5373,439;0,08433105;
5371,510;0,08301034;
5369,581;0,08169897;
5367,652;0,08039301;
5365,724;0,0790107;
5363,795;0,07764525;
5361,866;0,07643268;
5359,938;0,07526521;
5358,009;0,07405683;
5356,080;0,07288004;
5354,151;0,07174631;
5352,223;0,07067895;
5350,294;0,06973567;
5348,365;0,0688108;
5346,436;0,06775589;
5344,508;0,06664188;
5342,579;0,06561358;
5340,650;0,06466133;
5338,722;0,06379452;
5336,793;0,0630508;
5334,864;0,06230534;
5332,935;0,0614557;
5331,007;0,06058118;
5329,078;0,05977839;
5327,149;0,05901645;
5325,220;0,05823942;
5323,292;0,05751082;
5321,363;0,05687709;
5319,434;0,05625197;
5317,506;0,05557501;
5315,577;0,05488637;
5313,648;0,05423014;
5311,719;0,05359919;
5309,791;0,05294841;
5307,862;0,05228193;
5305,933;0,05168425;
5304,004;0,05118057;
5302,076;0,05067689;
5300,147;0,05010708;
5298,218;0,04953103;
5296,290;0,04902024;
5294,361;0,04856544;
5292,432;0,04814602;
5290,503;0,04778137;
5288,575;0,04744985;
5286,646;0,04703631;
5284,717;0,04652492;
5282,788;0,04604191;
5280,860;0,04562762;
5278,931;0,0452511;
5277,002;0,04490988;
5275,073;0,04458697;
5273,145;0,04425368;
5271,216;0,0439284;
5269,287;0,04366082;
5267,359;0,0433898;
5265,430;0,04299403;
5263,501;0,04253495;
5261,572;0,0421804;
5259,644;0,04196823;
5257,715;0,04181888;
5255,786;0,04162494;
5253,857;0,04132681;
5251,929;0,04099165;
5250,000;0,04070925;
5248,071;0,0404647;
5246,143;0,04022773;
5244,214;0,04003341;
5242,285;0,03987507;
5240,356;0,03967742;
5238,428;0,03947081;
5236,499;0,03935818;
5234,570;0,03928915;
5232,641;0,03916302;
5230,713;0,03899917;
5228,784;0,03881715;
5226,855;0,03860638;
5224,927;0,03838759;
5222,998;0,03818531;
5221,069;0,03801922;
5219,140;0,03788799;
5217,212;0,03779193;
5215,283;0,03771875;
5213,354;0,03762584;
5211,425;0,03755162;
5209,497;0,03753068;
5207,568;0,03748122;
5205,639;0,0373699;
5203,711;0,03723893;
5201,782;0,03713685;
5199,853;0,03711668;
5197,924;0,03713547;
5195,996;0,03712102;
5194,067;0,03707726;
5192,138;0,03698612;
5190,209;0,03685419;
5188,281;0,0367613;
5186,352;0,03674851;
5184,423;0,03679364;
5182,495;0,03683713;
5180,566;0,03683268;
5178,637;0,036816;
5176,708;0,03685093;
5174,780;0,03693939;
5172,851;0,03703837;
5170,922;0,03709973;
5168,993;0,03711544;
5167,065;0,03716055;
5165,136;0,03727074;
5163,207;0,03736871;
5161,278;0,03740578;
5159,350;0,03741347;
5157,421;0,03742003;
5155,492;0,03743964;
5153,564;0,03750864;
5151,635;0,03766532;
5149,706;0,03787863;
5147,777;0,03804011;
5145,849;0,03808825;
5143,920;0,03809933;
5141,991;0,03819862;
5140,062;0,03841116;
5138,134;0,03865465;
5136,205;0,0388481;
5134,276;0,03896912;
5132,348;0,03907336;
5130,419;0,03924001;
5128,490;0,03947203;
5126,561;0,03971178;
5124,633;0,03990411;
5122,704;0,04006051;
5120,775;0,04024253;
5118,846;0,04045932;
5116,918;0,04068427;
5114,989;0,0409169;
5113,060;0,04117734;
5111,132;0,04145351;
5109,203;0,04169492;
5107,274;0,04193195;
5105,345;0,04221421;
5103,417;0,04248971;
5101,488;0,04275744;
5099,559;0,04307003;
5097,630;0,04343399;
5095,702;0,04384199;
5093,773;0,0442165;
5091,844;0,04450734;
5089,916;0,04481136;
5087,987;0,04521309;
5086,058;0,045682;
5084,129;0,04609898;
5082,201;0,0464075;
5080,272;0,04675801;
5078,343;0,04725911;
5076,414;0,04778565;
5074,486;0,04826002;
5072,557;0,04873342;
5070,628;0,04921009;
5068,700;0,04970382;
5066,771;0,05025209;
5064,842;0,0508508;
5062,913;0,05147175;
5060,985;0,05208809;
5059,056;0,05273674;
5057,127;0,05343962;
5055,198;0,05411119;
5053,270;0,05474286;
5051,341;0,05545559;
5049,412;0,05623097;
5047,483;0,05691284;
5045,555;0,05751925;
5043,626;0,05820917;
5041,697;0,05901992;
5039,769;0,05991177;
5037,840;0,06085453;
5035,911;0,06172558;
5033,982;0,0624654;
5032,054;0,06324853;
5030,125;0,06419727;
5028,196;0,06523541;
5026,267;0,066291;
5024,339;0,06734492;
5022,410;0,06836168;
5020,481;0,06937246;
5018,553;0,07048573;
5016,624;0,0716987;
5014,695;0,07292641;
5012,766;0,07416439;
5010,838;0,07542988;
5008,909;0,07670626;
5006,980;0,07800465;
5005,051;0,07934931;
5003,123;0,08073039;
5001,194;0,08215434;
4999,265;0,0836259;
4997,337;0,08509631;
4995,408;0,08659796;
4993,479;0,08824601;
4991,550;0,09000117;
4989,622;0,09174831;
4987,693;0,0935206;
4985,764;0,09533598;
4983,835;0,09716462;
4981,907;0,09908705;
4979,978;0,1011052;
4978,049;0,1031062;
4976,121;0,105076;
4974,192;0,1070773;
4972,263;0,1091419;
4970,334;0,1112531;
4968,406;0,1134243;
4966,477;0,1156877;
4964,548;0,1180025;
4962,619;0,1203383;
4960,691;0,1226945;
4958,762;0,1250535;
4956,833;0,1274361;
4954,904;0,1298935;
4952,976;0,132462;
4951,047;0,1350809;
4949,118;0,1376242;
4947,190;0,1401161;
4945,261;0,142668;
4943,332;0,1452804;
4941,403;0,1478953;
4939,475;0,1504886;
4937,546;0,1530954;
4935,617;0,1557301;
4933,688;0,1583235;
4931,760;0,1608471;
4929,831;0,1633411;
4927,902;0,1658319;
4925,974;0,1683127;
4924,045;0,1707606;
4922,116;0,1731755;
4920,187;0,1755414;
4918,259;0,17782;
4916,330;0,1800181;
4914,401;0,1821682;
4912,472;0,1842667;
4910,544;0,1862349;
4908,615;0,1880358;
4906,686;0,1897528;
4904,758;0,1914009;
4902,829;0,1929184;
4900,900;0,1943325;
4898,971;0,1956616;
4897,043;0,1967988;
4895,114;0,197693;
4893,185;0,1984622;
4891,256;0,1991597;
4889,328;0,1997065;
4887,399;0,2000881;
4885,470;0,2003251;
4883,542;0,2003822;
4881,613;0,2002358;
4879,684;0,1999184;
4877,755;0,1994719;
4875,827;0,1988801;
4873,898;0,1981377;
4871,969;0,1972796;
4870,040;0,1962677;
4868,112;0,1950476;
4866,183;0,1936389;
4864,254;0,1920518;
4862,326;0,1902962;
4860,397;0,1884507;
4858,468;0,1865608;
4856,539;0,1845704;
4854,611;0,1824549;
4852,682;0,1802887;
4850,753;0,1780757;
4848,824;0,1757075;
4846,896;0,1731805;
4844,967;0,1705872;
4843,038;0,1679529;
4841,109;0,1652792;
4839,181;0,1625987;
4837,252;0,1599072;
4835,323;0,1571473;
4833,395;0,1543346;
4831,466;0,1515506;
4829,537;0,1487807;
4827,608;0,1459723;
4825,680;0,1431462;
4823,751;0,1403323;
4821,822;0,1375282;
4819,893;0,1347536;
4817,965;0,1320311;
4816,036;0,1293292;
4814,107;0,1266383;
4812,179;0,1239753;
4810,250;0,1213247;
4808,321;0,1187242;
4806,392;0,1162347;
4804,464;0,1137973;
4802,535;0,1113195;
4800,606;0,1088512;
4798,677;0,1064913;
4796,749;0,1042139;
4794,820;0,1019564;
4792,891;0,0997398;
4790,963;0,0976029;
4789,034;0,09553312;
4787,105;0,09347859;
4785,176;0,0914077;
4783,248;0,08939347;
4781,319;0,08752145;
4779,390;0,08571828;
4777,461;0,08389767;
4775,533;0,0821026;
4773,604;0,08038218;
4771,675;0,07874197;
4769,747;0,07715942;
4767,818;0,07560098;
4765,889;0,07406504;
4763,960;0,07257027;
4762,032;0,0711208;
4760,103;0,06970766;
4758,174;0,0683366;
4756,245;0,06701346;
4754,317;0,06573831;
4752,388;0,06450367;
4750,459;0,06328179;
4748,531;0,06208202;
4746,602;0,06093762;
4744,673;0,05984516;
4742,744;0,0587923;
4740,816;0,057769;
4738,887;0,05675675;
4736,958;0,05575609;
4735,029;0,05479867;
4733,101;0,05391283;
4731,172;0,05307297;
4729,243;0,05221077;
4727,314;0,05131581;
4725,386;0,05044089;
4723,457;0,04961827;
4721,528;0,04886285;
4719,600;0,04815772;
4717,671;0,04745266;
4715,742;0,04674367;
4713,813;0,0460728;
4711,885;0,04542756;
4709,956;0,04475292;
4708,027;0,04410012;
4706,098;0,0435243;
4704,170;0,04295033;
4702,241;0,04236044;
4700,312;0,04180539;
4698,384;0,04126228;
4696,455;0,0407184;
4694,526;0,04020532;
4692,597;0,03970119;
4690,669;0,03918877;
4688,740;0,03871641;
4686,811;0,03826847;
4684,882;0,03778448;
4682,954;0,03729623;
4681,025;0,03686965;
4679,096;0,03651524;
4677,168;0,03617867;
4675,239;0,03581034;
4673,310;0,03544962;
4671,381;0,0351248;
4669,453;0,03477428;
4667,524;0,03439187;
4665,595;0,03405221;
4663,666;0,03377104;
4661,738;0,03351349;
4659,809;0,03324522;
4657,880;0,03294491;
4655,952;0,03263681;
4654,023;0,03235817;
4652,094;0,03210731;
4650,165;0,03185597;
4648,237;0,03161385;
4646,308;0,03140114;
4644,379;0,03118935;
4642,450;0,03096251;
4640,522;0,03071352;
4638,593;0,0304489;
4636,664;0,03022452;
4634,736;0,0300511;
4632,807;0,0298817;
4630,878;0,0296777;
4628,949;0,02945535;
4627,021;0,02928905;
4625,092;0,02918256;
4623,163;0,02905563;
4621,234;0,0288985;
4619,306;0,02877554;
4617,377;0,02868702;
4615,448;0,02856328;
4613,519;0,02837903;
4611,591;0,02817618;
4609,662;0,02800935;
4607,733;0,02788503;
4605,805;0,02777077;
4603,876;0,02767004;
4601,947;0,02759008;
4600,018;0,02752366;
4598,090;0,02748851;
4596,161;0,02745776;
4594,232;0,02737479;
4592,303;0,02724793;
4590,375;0,02711991;
4588,446;0,0270266;
4586,517;0,02696234;
4584,589;0,02689111;
4582,660;0,02682327;
4580,731;0,02677466;
4578,802;0,02673849;
4576,874;0,02672576;
4574,945;0,02670661;
4573,016;0,02663462;
4571,087;0,02657246;
4569,159;0,02659111;
4567,230;0,02664525;
4565,301;0,02670282;
4563,373;0,02676783;
4561,444;0,02679113;
4559,515;0,02674492;
4557,586;0,02668214;
4555,658;0,0266739;
4553,729;0,02669919;
4551,800;0,02667947;
4549,871;0,026653;
4547,943;0,02669939;
4546,014;0,02676471;
4544,085;0,02678851;
4542,157;0,02683025;
4540,228;0,02691957;
4538,299;0,02699606;
4536,370;0,02705848;
4534,442;0,02716452;
4532,513;0,02729591;
4530,584;0,02737604;
4528,655;0,02739991;
4526,727;0,02743649;
4524,798;0,02751884;
4522,869;0,02763734;
4520,940;0,02776747;
4519,012;0,02786902;
4517,083;0,02795487;
4515,154;0,02807323;
4513,226;0,02821475;
4511,297;0,02835002;
4509,368;0,02848449;
4507,439;0,02861584;
4505,511;0,02872465;
4503,582;0,02885915;
4501,653;0,0290776;
4499,724;0,02929984;
4497,796;0,02945782;
4495,867;0,02964726;
4493,938;0,02991964;
4492,010;0,03017683;
4490,081;0,03038533;
4488,152;0,03061352;
4486,223;0,03083318;
4484,295;0,03099835;
4482,366;0,0311955;
4480,437;0,03146323;
4478,508;0,03172313;
4476,580;0,03195399;
4474,651;0,03220729;
4472,722;0,03249789;
4470,794;0,03279265;
4468,865;0,03308116;
4466,936;0,03339482;
4465,007;0,03374323;
4463,079;0,03409785;
4461,150;0,03444094;
4459,221;0,03477892;
4457,292;0,03513343;
4455,364;0,03552605;
4453,435;0,03595424;
4451,506;0,03639147;
4449,578;0,03682861;
4447,649;0,037284;
4445,720;0,03773478;
4443,791;0,03815728;
4441,863;0,03859946;
4439,934;0,03909377;
4438,005;0,03962841;
4436,076;0,04018706;
4434,148;0,04075518;
4432,219;0,04132622;
4430,290;0,04189296;
4428,362;0,04249039;
4426,433;0,04315103;
4424,504;0,04383433;
4422,575;0,04453206;
4420,647;0,04525838;
4418,718;0,04597052;
4416,789;0,04667003;
4414,860;0,04741477;
4412,932;0,04819616;
4411,003;0,04897417;
4409,074;0,04978081;
4407,145;0,05066804;
4405,217;0,05161521;
4403,288;0,05254927;
4401,359;0,05346215;
4399,431;0,05441861;
4397,502;0,05541332;
4395,573;0,05641637;
4393,644;0,05747057;
4391,716;0,05860386;
4389,787;0,05978872;
4387,858;0,06096243;
4385,929;0,06212149;
4384,001;0,06333663;
4382,072;0,06458373;
4380,143;0,06583645;
4378,215;0,06716864;
4376,286;0,06858812;
4374,357;0,07004921;
4372,428;0,07152145;
4370,500;0,07298104;
4368,571;0,07446767;
4366,642;0,07604501;
4364,713;0,07773475;
4362,785;0,0795259;
4360,856;0,08139189;
4358,927;0,08330577;
4356,999;0,0852598;
4355,070;0,08731174;
4353,141;0,08949564;
4351,212;0,09171481;
4349,284;0,09391745;
4347,355;0,09618606;
4345,426;0,09856278;
4343,497;0,1010232;
4341,569;0,1035718;
4339,640;0,1062118;
4337,711;0,1089168;
4335,783;0,111699;
4333,854;0,1145831;
4331,925;0,1175246;
4329,996;0,1204733;
4328,068;0,1234385;
4326,139;0,1264333;
4324,210;0,129441;
4322,281;0,1324557;
4320,353;0,1354776;
4318,424;0,1384748;
4316,495;0,1414176;
4314,567;0,1443199;
4312,638;0,1472241;
4310,709;0,1501434;
4308,780;0,1530508;
4306,852;0,1559341;
4304,923;0,158767;
4302,994;0,1614869;
4301,065;0,1640913;
4299,137;0,1666108;
4297,208;0,1689927;
4295,279;0,1711767;
4293,350;0,1731908;
4291,422;0,1750568;
4289,493;0,1767412;
4287,564;0,1782407;
4285,636;0,1795976;
4283,707;0,1808419;
4281,778;0,1819662;
4279,849;0,1829552;
4277,921;0,1838083;
4275,992;0,1845032;
4274,063;0,1850158;
4272,134;0,1853686;
4270,206;0,1855768;
4268,277;0,1855833;
4266,348;0,185341;
4264,420;0,1848952;
4262,491;0,184257;
4260,562;0,1833796;
4258,633;0,1822714;
4256,705;0,180952;
4254,776;0,1794421;
4252,847;0,1777515;
4250,918;0,1758509;
4248,990;0,1737675;
4247,061;0,1715095;
4245,132;0,1690155;
4243,204;0,1663291;
4241,275;0,1635481;
4239,346;0,160654;
4237,417;0,1575906;
4235,489;0,154397;
4233,560;0,1511513;
4231,631;0,1478842;
4229,702;0,1445986;
4227,774;0,1412778;
4225,845;0,1379235;
4223,916;0,1345975;
4221,988;0,1313307;
4220,059;0,1280959;
4218,130;0,1249249;
4216,201;0,1218673;
4214,273;0,1188479;
4212,344;0,1157881;
4210,415;0,1127366;
4208,486;0,1097495;
4206,558;0,1068377;
4204,629;0,1039883;
4202,700;0,1011766;
4200,772;0,09842804;
4198,843;0,0957639;
4196,914;0,0931428;
4194,985;0,09055807;
4193,057;0,08805659;
4191,128;0,08565132;
4189,199;0,08332335;
4187,270;0,08106302;
4185,342;0,07886673;
4183,413;0,0767239;
4181,484;0,07463124;
4179,555;0,072621;
4177,627;0,07072018;
4175,698;0,06890034;
4173,769;0,06712651;
4171,841;0,06540664;
4169,912;0,06373761;
4167,983;0,06208256;
4166,054;0,06046142;
4164,126;0,05893758;
4162,197;0,0575155;
4160,268;0,05615178;
4158,339;0,05480889;
4156,411;0,0534793;
4154,482;0,05218068;
4152,553;0,05092841;
4150,625;0,04973442;
4148,696;0,04861207;
4146,767;0,04755871;
4144,838;0,04655464;
4142,910;0,04558124;
4140,981;0,04461349;
4139,052;0,04364698;
4137,123;0,04272971;
4135,195;0,04187399;
4133,266;0,04102778;
4131,337;0,04017503;
4129,409;0,03934224;
4127,480;0,03853917;
4125,551;0,03776516;
4123,622;0,03703358;
4121,694;0,0363425;
4119,765;0,03566303;
4117,836;0,03500105;
4115,907;0,03439257;
4113,979;0,03381567;
4112,050;0,03321512;
4110,121;0,03260487;
4108,193;0,0320197;
4106,264;0,03145135;
4104,335;0,0309105;
4102,406;0,03040266;
4100,478;0,02990375;
4098,549;0,02943716;
4096,620;0,02903743;
4094,691;0,02866222;
4092,763;0,02823554;
4090,834;0,02775891;
4088,905;0,02731572;
4086,977;0,02695949;
4085,048;0,02664634;
4083,119;0,02629423;
4081,190;0,02590023;
4079,262;0,02552439;
4077,333;0,02518201;
4075,404;0,02486711;
4073,475;0,02459339;
4071,547;0,02434354;
4069,618;0,02407167;
4067,689;0,02376132;
4065,760;0,02344325;
4063,832;0,02315472;
4061,903;0,02288223;
4059,974;0,0226012;
4058,046;0,02233102;
4056,117;0,02208557;
4054,188;0,02187324;
4052,259;0,02169685;
4050,331;0,02150068;
4048,402;0,02125736;
4046,473;0,02101864;
4044,544;0,02081096;
4042,616;0,02061961;
4040,687;0,02043118;
4038,758;0,02023685;
4036,830;0,02004541;
4034,901;0,01986267;
4032,972;0,01968781;
4031,043;0,01953149;
4029,115;0,0193757;
4027,186;0,01920886;
4025,257;0,0190744;
4023,328;0,0189762;
4021,400;0,01885421;
4019,471;0,01870856;
4017,542;0,01859636;
4015,614;0,01849563;
4013,685;0,01835881;
4011,756;0,01820944;
4009,827;0,01806801;
4007,899;0,01796596;
4005,970;0,01793009;
4004,041;0,01788939;
4002,112;0,01779476;
4000,184;0,01767903;
3998,255;0,01756261;
3996,326;0,01746941;
3994,398;0,01741104;
3992,469;0,01734369;
3990,540;0,01726081;
3988,611;0,01720787;
3986,683;0,01717001;
3984,754;0,0171107;
3982,825;0,01704749;
3980,896;0,01698402;
3978,968;0,01690925;
3977,039;0,01683772;
3975,110;0,01677749;
3973,181;0,01674668;
3971,253;0,01676714;
3969,324;0,0167876;
3967,395;0,01674185;
3965,467;0,01665803;
3963,538;0,01660112;
3961,609;0,01661601;
3959,680;0,01668599;
3957,752;0,01670083;
3955,823;0,01662013;
3953,894;0,01653904;
3951,965;0,01653001;
3950,037;0,01656331;
3948,108;0,01658948;
3946,179;0,01660908;
3944,251;0,01662002;
3942,322;0,01664941;
3940,393;0,0167137;
3938,464;0,01670656;
3936,536;0,01661944;
3934,607;0,01660179;
3932,678;0,01668097;
3930,749;0,01675745;
3928,821;0,01675712;
3926,892;0,0166744;
3924,963;0,01661343;
3923,035;0,01667972;
3921,106;0,01681269;
3919,177;0,01688761;
3917,248;0,01690383;
3915,320;0,01695986;
3913,391;0,0170575;
3911,462;0,01712583;
3909,533;0,01720767;
3907,605;0,01732925;
3905,676;0,01740976;
3903,747;0,01743702;
3901,819;0,0174626;
3899,890;0,01751735;
3897,961;0,01761182;
3896,032;0,01771936;
3894,104;0,01780636;
3892,175;0,01789114;
3890,246;0,01801074;
3888,317;0,01813707;
3886,389;0,01823767;
3884,460;0,0183405;
3882,531;0,01844518;
3880,603;0,01855534;
3878,674;0,01872153;
3876,745;0,01891616;
3874,816;0,01905771;
3872,888;0,01913735;
3870,959;0,01923622;
3869,030;0,01943759;
3867,101;0,01969294;
3865,173;0,01988049;
3863,244;0,02000499;
3861,315;0,0201813;
3859,386;0,02041779;
3857,458;0,02058988;
3855,529;0,02065258;
3853,600;0,0207666;
3851,672;0,02106468;
3849,743;0,02139927;
3847,814;0,02164913;
3845,885;0,02190117;
3843,957;0,02221801;
3842,028;0,02251511;
3840,099;0,02275002;
3838,170;0,02300474;
3836,242;0,02331219;
3834,313;0,02365436;
3832,384;0,0240411;
3830,456;0,02440722;
3828,527;0,02471823;
3826,598;0,02507819;
3824,669;0,02550911;
3822,741;0,02593818;
3820,812;0,0263142;
3818,883;0,02659703;
3816,954;0,0268972;
3815,026;0,02734081;
3813,097;0,02785386;
3811,168;0,02839474;
3809,240;0,02894857;
3807,311;0,02943531;
3805,382;0,02985865;
3803,453;0,03032668;
3801,525;0,030956;
3799,596;0,03166431;
3797,667;0,03229207;
3795,738;0,03291939;
3793,810;0,03364339;
3791,881;0,03442236;
3789,952;0,03522545;
3788,024;0,03602879;
3786,095;0,03680614;
3784,166;0,03758118;
3782,237;0,03835353;
3780,309;0,03915179;
3778,380;0,04006972;
3776,451;0,04107852;
3774,522;0,04209585;
3772,594;0,04313616;
3770,665;0,04423417;
3768,736;0,04538432;
3766,808;0,04657576;
3764,879;0,04783507;
3762,950;0,04912939;
3761,021;0,05042576;
3759,093;0,05182983;
3757,164;0,05333671;
3755,235;0,05478512;
3753,306;0,05618999;
3751,378;0,05779028;
3749,449;0,05964075;
3747,520;0,06143193;
3745,591;0,06324469;
3743,663;0,06550051;
3741,734;0,06790872;
3739,805;0,07004082;
3737,877;0,07213895;
3735,948;0,07449778;
3734,019;0,07708508;
3732,090;0,07983173;
3730,162;0,08266753;
3728,233;0,08548246;
3726,304;0,08835721;
3724,375;0,09137738;
3722,447;0,09448387;
3720,518;0,09768163;
3718,589;0,1009738;
3716,661;0,1042404;
3714,732;0,1073494;
3712,803;0,1105658;
3710,874;0,1142568;
3708,946;0,1181891;
3707,017;0,1219571;
3705,088;0,125429;
3703,159;0,1287795;
3701,231;0,1322408;
3699,302;0,1356991;
3697,373;0,138941;
3695,445;0,1418871;
3693,516;0,1444191;
3691,587;0,1465215;
3689,658;0,1486907;
3687,730;0,1513397;
3685,801;0,1539149;
3683,872;0,1558162;
3681,943;0,1571627;
3680,015;0,158003;
3678,086;0,1582209;
3676,157;0,1583746;
3674,229;0,1587618;
3672,300;0,1586827;
3670,371;0,15819;
3668,442;0,1577889;
3666,514;0,1570726;
3664,585;0,1557401;
3662,656;0,1540265;
3660,727;0,1520302;
3658,799;0,1496887;
3656,870;0,1471625;
3654,941;0,1446521;
3653,013;0,1418345;
3651,084;0,1385868;
3649,155;0,1355034;
3647,226;0,1328601;
3645,298;0,1302412;
3643,369;0,1273264;
3641,440;0,1241679;
3639,511;0,1209128;
3637,583;0,1176391;
3635,654;0,1143423;
3633,725;0,1110006;
3631,796;0,1075847;
3629,868;0,1041675;
3627,939;0,1010768;
3626,010;0,09829994;
3624,082;0,09544485;
3622,153;0,09241243;
3620,224;0,08937569;
3618,295;0,08653613;
3616,367;0,08388724;
3614,438;0,08127047;
3612,509;0,07865447;
3610,580;0,07610028;
3608,652;0,07366681;
3606,723;0,0713726;
3604,794;0,06914226;
3602,866;0,06690513;
3600,937;0,06469613;
3599,008;0,06255643;
3597,079;0,06048654;
3595,151;0,05849286;
3593,222;0,05659468;
3591,293;0,0547634;
3589,364;0,05294771;
3587,436;0,0512135;
3585,507;0,04961916;
3583,578;0,04809937;
3581,650;0,04660628;
3579,721;0,04516254;
3577,792;0,04378427;
3575,863;0,04244952;
3573,935;0,04115629;
3572,006;0,03990526;
3570,077;0,0386852;
3568,148;0,03752563;
3566,220;0,03646791;
3564,291;0,03546779;
3562,362;0,03445763;
3560,434;0,03347254;
3558,505;0,03254535;
3556,576;0,0316405;
3554,647;0,03074089;
3552,719;0,0298768;
3550,790;0,02907091;
3548,861;0,02830124;
3546,932;0,02755654;
3545,004;0,02685524;
3543,075;0,02621186;
3541,146;0,02560851;
3539,217;0,02501138;
3537,289;0,02440378;
3535,360;0,02379954;
3533,431;0,02324237;
3531,503;0,0227357;
3529,574;0,02224171;
3527,645;0,02175202;
3525,716;0,0212884;
3523,788;0,02085727;
3521,859;0,0204393;
3519,930;0,02002342;
3518,001;0,01961102;
3516,073;0,01921179;
3514,144;0,01883713;
3512,215;0,01848771;
3510,287;0,01814953;
3508,358;0,01780946;
3506,429;0,0174701;
3504,500;0,01714274;
3502,572;0,01685014;
3500,643;0,01657963;
3498,714;0,01629588;
3496,785;0,01601767;
3494,857;0,01576484;
3492,928;0,01550847;
3490,999;0,01524046;
3489,071;0,01499714;
3487,142;0,01477799;
3485,213;0,01455141;
3483,284;0,01432188;
3481,356;0,01409836;
3479,427;0,0138783;
3477,498;0,01367568;
3475,569;0,01350033;
3473,641;0,0133345;
3471,712;0,01315304;
3469,783;0,01295748;
3467,855;0,01278094;
3465,926;0,01263693;
3463,997;0,01249615;
3462,068;0,01234022;
3460,140;0,0121882;
3458,211;0,01206219;
3456,282;0,01194388;
3454,353;0,01180258;
3452,425;0,01165505;
3450,496;0,01152635;
3448,567;0,01140464;
3446,639;0,01127413;
3444,710;0,01113939;
3442,781;0,01100738;
3440,852;0,01088276;
3438,924;0,01077659;
3436,995;0,01068724;
3435,066;0,01059632;
3433,137;0,01049949;
3431,209;0,01040683;
3429,280;0,01031982;
3427,351;0,01024237;
3425,422;0,01017471;
3423,494;0,01009104;
3421,565;0,009985092;
3419,636;0,009887177;
3417,708;0,009801439;
3415,779;0,009717729;
3413,850;0,009649159;
3411,921;0,009600088;
3409,993;0,00955511;
3408,064;0,009500248;
3406,135;0,009437008;
3404,206;0,009379517;
3402,278;0,009346355;
3400,349;0,00933621;
3398,420;0,009311389;
3396,492;0,00925903;
3394,563;0,00921098;
3392,634;0,009180881;
3390,705;0,009150386;
3388,777;0,00912209;
3386,848;0,009127361;
3384,919;0,009153203;
3382,990;0,009157273;
3381,062;0,009149498;
3379,133;0,009167433;
3377,204;0,00919008;
3375,276;0,009167998;
3373,347;0,009115078;
3371,418;0,009058775;
3369,489;0,009011352;
3367,561;0,009004636;
3365,632;0,009022806;
3363,703;0,009002885;
3361,774;0,008942106;
3359,846;0,008894417;
3357,917;0,008874804;
3355,988;0,008860509;
3354,060;0,00884205;
3352,131;0,008821308;
3350,202;0,008807979;
3348,273;0,008804537;
3346,345;0,008798113;
3344,416;0,008780115;
3342,487;0,008754626;
3340,558;0,0087358;
3338,630;0,008737342;
3336,701;0,008758626;
3334,772;0,008778294;
3332,844;0,008772619;
3330,915;0,008754976;
3328,986;0,00877582;
3327,057;0,008831958;
3325,129;0,008860348;
3323,200;0,008869331;
3321,271;0,008898086;
3319,342;0,008920629;
3317,414;0,008933996;
3315,485;0,00896185;
3313,556;0,008978955;
3311,627;0,008979412;
3309,699;0,009008372;
3307,770;0,009058846;
3305,841;0,009087698;
3303,913;0,009111513;
3301,984;0,009158853;
3300,055;0,009226383;
3298,126;0,009285659;
3296,198;0,009306079;
3294,269;0,009314512;
3292,340;0,009346822;
3290,411;0,009402735;
3288,483;0,00947159;
3286,554;0,009529656;
3284,625;0,009575414;
3282,697;0,009636591;
3280,768;0,009721474;
3278,839;0,009814764;
3276,910;0,009895187;
3274,982;0,009947455;
3273,053;0,009979156;
3271,124;0,01002036;
3269,195;0,01009899;
3267,267;0,01022189;
3265,338;0,01035337;
3263,409;0,01045275;
3261,481;0,01053407;
3259,552;0,01062709;
3257,623;0,01073198;
3255,694;0,01083551;
3253,766;0,01093355;
3251,837;0,01102711;
3249,908;0,01111957;
3247,979;0,01122334;
3246,051;0,01133779;
3244,122;0,01145674;
3242,193;0,01158867;
3240,265;0,01173603;
3238,336;0,01190084;
3236,407;0,01207729;
3234,478;0,01224291;
3232,550;0,0124004;
3230,621;0,01255903;
3228,692;0,01271739;
3226,763;0,01289623;
3224,835;0,01310005;
3222,906;0,0133034;
3220,977;0,01349873;
3219,049;0,01370102;
3217,120;0,01393049;
3215,191;0,01418853;
3213,262;0,01444677;
3211,334;0,0146824;
3209,405;0,01491478;
3207,476;0,01517271;
3205,547;0,01544845;
3203,619;0,01572439;
3201,690;0,0160093;
3199,761;0,01632118;
3197,832;0,01666643;
3195,904;0,01704381;
3193,975;0,01743294;
3192,046;0,01780862;
3190,118;0,01817711;
3188,189;0,01855734;
3186,260;0,01896692;
3184,331;0,01941632;
3182,403;0,01988975;
3180,474;0,02037595;
3178,545;0,02088173;
3176,616;0,02139308;
3174,688;0,02191739;
3172,759;0,02252209;
3170,830;0,02321283;
3168,902;0,02390544;
3166,973;0,02457528;
3165,044;0,02527768;
3163,115;0,02604722;
3161,187;0,02687367;
3159,258;0,02772933;
3157,329;0,02860198;
3155,400;0,02953289;
3153,472;0,03054928;
3151,543;0,03161359;
3149,614;0,0327232;
3147,686;0,03389918;
3145,757;0,03512137;
3143,828;0,03639556;
3141,899;0,03775107;
3139,971;0,0391809;
3138,042;0,0406816;
3136,113;0,04229154;
3134,184;0,04402747;
3132,256;0,04585509;
3130,327;0,04775426;
3128,398;0,04973818;
3126,470;0,05182387;
3124,541;0,05402253;
3122,612;0,05634521;
3120,683;0,0588077;
3118,755;0,06140226;
3116,826;0,06407923;
3114,897;0,06681336;
3112,968;0,06965132;
3111,040;0,07262618;
3109,111;0,0756954;
3107,182;0,07881247;
3105,253;0,08197883;
3103,325;0,08519922;
3101,396;0,08845097;
3099,467;0,09169095;
3097,539;0,09487199;
3095,610;0,09798072;
3093,681;0,1010012;
3091,752;0,1038696;
3089,824;0,1065266;
3087,895;0,1089334;
3085,966;0,1110588;
3084,037;0,1128742;
3082,109;0,1143531;
3080,180;0,1154721;
3078,251;0,1161679;
3076,323;0,1163927;
3074,394;0,1161699;
3072,465;0,1154881;
3070,536;0,1143126;
3068,608;0,1126865;
3066,679;0,1106756;
3064,750;0,1083212;
3062,821;0,1056577;
3060,893;0,1027068;
3058,964;0,09951033;
3057,035;0,09614493;
3055,107;0,09268407;
3053,178;0,08917347;
3051,249;0,08561863;
3049,320;0,08199751;
3047,392;0,07830612;
3045,463;0,07457536;
3043,534;0,07083785;
3041,605;0,06711881;
3039,677;0,06345322;
3037,748;0,05988117;
3035,819;0,05643784;
3033,891;0,05314086;
3031,962;0,04999982;
3030,033;0,0470381;
3028,104;0,04427229;
3026,176;0,0416864;
3024,247;0,03925038;
3022,318;0,03694976;
3020,389;0,03477594;
3018,461;0,03272305;
3016,532;0,03080668;
3014,603;0,02901939;
3012,675;0,02730618;
3010,746;0,0256516;
3008,817;0,02409487;
3006,888;0,02263626;
3004,960;0,02125057;
3003,031;0,01994953;
3001,102;0,0187421;
2999,173;0,01761213;
2997,245;0,01655371;
2995,316;0,01555929;
2993,387;0,01459669;
2991,458;0,01365433;
2989,530;0,01277517;
2987,601;0,01198407;
2985,672;0,01122934;
2983,744;0,01047443;
2981,815;0,009754596;
2979,886;0,009083421;
2977,957;0,008443887;
2976,029;0,007850243;
2974,100;0,007306522;
2972,171;0,006782394;
2970,242;0,006260031;
2968,314;0,005756791;
2966,385;0,005297805;
2964,456;0,004895882;
2962,528;0,004563173;
2960,599;0,004288326;
2958,670;0,00404338;
2956,741;0,003829708;
2954,813;0,003652313;
2952,884;0,003493947;
2950,955;0,003333403;
2949,026;0,003161738;
2947,098;0,002991203;
2945,169;0,002841936;
2943,240;0,002722245;
2941,312;0,002634255;
2939,383;0,002599044;
2937,454;0,002649507;
2935,525;0,002798617;
2933,597;0,003052619;
2931,668;0,003432469;
2929,739;0,003961168;
2927,810;0,004634927;
2925,882;0,005422037;
2923,953;0,006303457;
2922,024;0,007270043;
2920,096;0,008288644;
2918,167;0,00929624;
2916,238;0,01019356;
2914,309;0,01087143;
2912,381;0,01127537;
2910,452;0,01142999;
2908,523;0,01142118;
2906,594;0,01134287;
2904,666;0,01124264;
2902,737;0,01112492;
2900,808;0,01097482;
2898,880;0,01078288;
2896,951;0,01053942;
2895,022;0,01022469;
2893,093;0,009862408;
2891,165;0,009511985;
2889,236;0,009178213;
2887,307;0,008813526;
2885,378;0,008406777;
2883,450;0,007981875;
2881,521;0,007542837;
2879,592;0,007100716;
2877,663;0,00666879;
2875,735;0,006244358;
2873,806;0,005854828;
2871,877;0,005524911;
2869,949;0,00523288;
2868,020;0,004978125;
2866,091;0,004834728;
2864,162;0,00489178;
2862,234;0,005182129;
2860,305;0,005695485;
2858,376;0,006409308;
2856,447;0,007275254;
2854,519;0,008188944;
2852,590;0,009003974;
2850,661;0,009581733;
2848,733;0,009845946;
2846,804;0,009836549;
2844,875;0,009654594;
2842,946;0,00936634;
2841,018;0,009015077;
2839,089;0,008644964;
2837,160;0,008290315;
2835,231;0,007974674;
2833,303;0,007706093;
2831,374;0,007471247;
2829,445;0,007262469;
2827,517;0,007096994;
2825,588;0,006973458;
2823,659;0,006856876;
2821,730;0,006732777;
2819,802;0,006615056;
2817,873;0,0064996;
2815,944;0,006373687;
2814,015;0,006245972;
2812,087;0,00611793;
2810,158;0,005986276;
2808,229;0,005867748;
2806,301;0,005760383;
2804,372;0,005643259;
2802,443;0,00552882;
2800,514;0,005439329;
2798,586;0,005357419;
2796,657;0,005269771;
2794,728;0,005194036;
2792,799;0,005133694;
2790,871;0,005083736;
2788,942;0,005041575;
2787,013;0,004987055;
2785,085;0,004915996;
2783,156;0,004848595;
2781,227;0,004789302;
2779,298;0,004734629;
2777,370;0,004690337;
2775,441;0,004659189;
2773,512;0,004622805;
2771,583;0,004557515;
2769,655;0,004483549;
2767,726;0,004435767;
2765,797;0,004401933;
2763,868;0,004359914;
2761,940;0,004318466;
2760,011;0,004284924;
2758,082;0,004258271;
2756,154;0,004256042;
2754,225;0,004273733;
2752,296;0,004262655;
2750,367;0,004206407;
2748,439;0,004142843;
2746,510;0,004110737;
2744,581;0,004106462;
2742,652;0,004090355;
2740,724;0,004055251;
2738,795;0,004035822;
2736,866;0,004040068;
2734,938;0,004037209;
2733,009;0,004020433;
2731,080;0,00400942;
2729,151;0,003989322;
2727,223;0,003948603;
2725,294;0,003918392;
2723,365;0,003906634;
2721,436;0,003894683;
2719,508;0,003893309;
2717,579;0,003917636;
2715,650;0,003941701;
2713,722;0,00392676;
2711,793;0,003878769;
2709,864;0,003852675;
2707,935;0,003870135;
2706,007;0,003889776;
2704,078;0,003884944;
2702,149;0,003871309;
2700,220;0,003858437;
2698,292;0,003845961;
2696,363;0,00384659;
2694,434;0,003863733;
2692,506;0,003883899;
2690,577;0,003899055;
2688,648;0,003908296;
2686,719;0,003912474;
2684,791;0,003910043;
2682,862;0,003901844;
2680,933;0,003895062;
2679,004;0,003897001;
2677,076;0,003913727;
2675,147;0,003931309;
2673,218;0,003930105;
2671,290;0,003920976;
2669,361;0,003925411;
2667,432;0,00395356;
2665,503;0,003992311;
2663,575;0,004015318;
2661,646;0,004022084;
2659,717;0,004028582;
2657,788;0,004048497;
2655,860;0,004086626;
2653,931;0,004119637;
2652,002;0,004136672;
2650,073;0,004161938;
2648,145;0,004200422;
2646,216;0,004234101;
2644,287;0,004257757;
2642,359;0,004277447;
2640,430;0,004301571;
2638,501;0,004335157;
2636,572;0,004368854;
2634,644;0,004396194;
2632,715;0,0044313;
2630,786;0,004479229;
2628,857;0,004517;
2626,929;0,004538081;
2625,000;0,004572546;
2623,071;0,004620402;
2621,143;0,004651912;
2619,214;0,004685572;
2617,285;0,004749513;
2615,356;0,004822255;
2613,428;0,004890807;
2611,499;0,004971416;
2609,570;0,005045065;
2607,641;0,00508523;
2605,713;0,005128875;
2603,784;0,005201949;
2601,855;0,005270368;
2599,927;0,005321635;
2597,998;0,005387705;
2596,069;0,00548074;
2594,140;0,005569048;
2592,212;0,005630264;
2590,283;0,005692697;
2588,354;0,005792627;
2586,425;0,005916048;
2584,497;0,006002638;
2582,568;0,006062654;
2580,639;0,00618869;
2578,711;0,006368701;
2576,782;0,006497726;
2574,853;0,006574712;
2572,924;0,006678222;
2570,996;0,006815809;
2569,067;0,006943885;
2567,138;0,007060444;
2565,209;0,007191102;
2563,281;0,007351798;
2561,352;0,007540899;
2559,423;0,007725128;
2557,494;0,007878008;
2555,566;0,00803289;
2553,637;0,008239502;
2551,708;0,008485279;
2549,780;0,008720098;
2547,851;0,008926657;
2545,922;0,009122806;
2543,993;0,009349702;
2542,065;0,009625997;
2540,136;0,009909897;
2538,207;0,01017999;
2536,278;0,01046547;
2534,350;0,01077808;
2532,421;0,01110805;
2530,492;0,01145734;
2528,564;0,01182886;
2526,635;0,01221907;
2524,706;0,01263718;
2522,777;0,01308764;
2520,849;0,01356071;
2518,920;0,01405174;
2516,991;0,01455994;
2515,062;0,01510295;
2513,134;0,01571295;
2511,205;0,01639329;
2509,276;0,01710776;
2507,348;0,01784158;
2505,419;0,01864181;
2503,490;0,01952431;
2501,561;0,0204446;
2499,633;0,02140678;
2497,704;0,02245484;
2495,775;0,02359084;
2493,846;0,02480011;
2491,918;0,02609481;
2489,989;0,02748646;
2488,060;0,0289639;
2486,132;0,03052021;
2484,203;0,03217702;
2482,274;0,0339718;
2480,345;0,03591361;
2478,417;0,03796573;
2476,488;0,04009879;
2474,559;0,04233805;
2472,630;0,04470339;
2470,702;0,04714756;
2468,773;0,04963276;
2466,844;0,05218133;
2464,916;0,05481056;
2462,987;0,05752745;
2461,058;0,06034664;
2459,129;0,06322664;
2457,201;0,06607773;
2455,272;0,06883792;
2453,343;0,07146861;
2451,414;0,07394853;
2449,486;0,07627695;
2447,557;0,07842402;
2445,628;0,08031774;
2443,699;0,08188805;
2441,771;0,08309025;
2439,842;0,08389229;
2437,913;0,08425627;
2435,985;0,08412269;
2434,056;0,0834435;
2432,127;0,08224286;
2430,198;0,08060598;
2428,270;0,0786405;
2426,341;0,07643868;
2424,412;0,0740417;
2422,483;0,07147295;
2420,555;0,06877886;
2418,626;0,06601345;
2416,697;0,06320083;
2414,769;0,06033343;
2412,840;0,0574259;
2410,911;0,05451646;
2408,982;0,0516213;
2407,054;0,04875758;
2405,125;0,04596891;
2403,196;0,0432843;
2401,267;0,04070317;
2399,339;0,03823611;
2397,410;0,03591945;
2395,481;0,03377485;
2393,553;0,03176701;
2391,624;0,02984999;
2389,695;0,02804635;
2387,766;0,02639194;
2385,838;0,0248571;
2383,909;0,02341188;
2381,980;0,02207258;
2380,051;0,02084671;
2378,123;0,01971154;
2376,194;0,01863308;
2374,265;0,01760197;
2372,337;0,01664618;
2370,408;0,0157732;
2368,479;0,01497406;
2366,550;0,01425345;
2364,622;0,01358404;
2362,693;0,01294063;
2360,764;0,01235045;
2358,835;0,01182999;
2356,907;0,01135814;
2354,978;0,01091135;
2353,049;0,01048692;
2351,121;0,01009983;
2349,192;0,009739447;
2347,263;0,009363276;
2345,334;0,008956593;
2343,406;0,008565117;
2341,477;0,008236021;
2339,548;0,007953;
2337,619;0,007673794;
2335,691;0,007396328;
2333,762;0,007149233;
2331,833;0,006935594;
2329,904;0,006729288;
2327,976;0,006531155;
2326,047;0,006353817;
2324,118;0,006169528;
2322,190;0,005963332;
2320,261;0,005771674;
2318,332;0,005611697;
2316,403;0,005469482;
2314,475;0,005338009;
2312,546;0,005204629;
2310,617;0,005068989;
2308,688;0,004942212;
2306,760;0,004803204;
2304,831;0,004647848;
2302,902;0,004510188;
2300,974;0,004396224;
2299,045;0,004302769;
2297,116;0,004233378;
2295,187;0,004151036;
2293,259;0,004033553;
2291,330;0,003918734;
2289,401;0,003824782;
2287,472;0,003741077;
2285,544;0,003672259;
2283,615;0,003611;
2281,686;0,0035364;
2279,758;0,003457351;
2277,829;0,003403121;
2275,900;0,003365139;
2273,971;0,003299001;
2272,043;0,00319315;
2270,114;0,003087336;
2268,185;0,003022984;
2266,256;0,002993458;
2264,328;0,002957434;
2262,399;0,002907158;
2260,470;0,002868355;
2258,542;0,002837757;
2256,613;0,002794718;
2254,684;0,002744379;
2252,755;0,002691501;
2250,827;0,00263194;
2248,898;0,002574918;
2246,969;0,002523388;
2245,040;0,002471053;
2243,112;0,002424987;
2241,183;0,002396219;
2239,254;0,002380288;
2237,326;0,002365836;
2235,397;0,002350105;
2233,468;0,0023278;
2231,539;0,002293148;
2229,611;0,002252999;
2227,682;0,002211818;
2225,753;0,002175449;
2223,824;0,002152591;
2221,896;0,002134598;
2219,967;0,002120554;
2218,038;0,002114651;
2216,109;0,002089965;
2214,181;0,002044277;
2212,252;0,002014635;
2210,323;0,002000063;
2208,395;0,0019728;
2206,466;0,001940546;
2204,537;0,001921409;
2202,608;0,001904504;
2200,680;0,00188706;
2198,751;0,001882932;
2196,822;0,001883192;
2194,893;0,001878207;
2192,965;0,001862212;
2191,036;0,001818007;
2189,107;0,001759576;
2187,179;0,001724101;
2185,250;0,001722734;
2183,321;0,001739629;
2181,392;0,001754333;
2179,464;0,001758741;
2177,535;0,001752933;
2175,606;0,001741043;
2173,677;0,001737518;
2171,749;0,001740217;
2169,820;0,001726384;
2167,891;0,001697766;
2165,963;0,001679443;
2164,034;0,001671167;
2162,105;0,001652279;
2160,176;0,001623781;
2158,248;0,001598305;
2156,319;0,001583056;
2154,390;0,00158591;
2152,461;0,00159621;
2150,533;0,001600953;
2148,604;0,001610357;
2146,675;0,001616318;
2144,747;0,001600532;
2142,818;0,001582205;
2140,889;0,001573607;
2138,960;0,001553416;
2137,032;0,001529655;
2135,103;0,001540346;
2133,174;0,001583888;
2131,245;0,001609807;
2129,317;0,001585131;
2127,388;0,001542046;
2125,459;0,001530592;
2123,530;0,001545227;
2121,602;0,001549003;
2119,673;0,0015443;
2117,744;0,001545763;
2115,816;0,001539032;
2113,887;0,001521805;
2111,958;0,001512615;
2110,029;0,001516288;
2108,101;0,001524994;
2106,172;0,001531408;
2104,243;0,001534607;
2102,314;0,001544346;
2100,386;0,001563416;
2098,457;0,001568801;
2096,528;0,001552792;
2094,600;0,001542067;
2092,671;0,001543938;
2090,742;0,001550798;
2088,813;0,0015655;
2086,885;0,001577619;
2084,956;0,001573422;
2083,027;0,001558577;
2081,098;0,001547456;
2079,170;0,001556711;
2077,241;0,001586732;
2075,312;0,001607202;
2073,384;0,001598261;
2071,455;0,001583858;
2069,526;0,001592271;
2067,597;0,00161888;
2065,669;0,001644871;
2063,740;0,00165747;
2061,811;0,001656443;
2059,882;0,001652953;
2057,954;0,001654765;
2056,025;0,00166787;
2054,096;0,001691574;
2052,168;0,001712776;
2050,239;0,001719452;
2048,310;0,001710607;
2046,381;0,001707517;
2044,453;0,001712627;
2042,524;0,001708776;
2040,595;0,001719203;
2038,666;0,0017638;
2036,738;0,001817494;
2034,809;0,001843412;
2032,880;0,001834244;
2030,952;0,001832685;
2029,023;0,001862021;
2027,094;0,001883085;
2025,165;0,001882224;
2023,237;0,001895242;
2021,308;0,001928271;
2019,379;0,001961962;
2017,450;0,001995792;
2015,522;0,002027506;
2013,593;0,002047499;
2011,664;0,002067961;
2009,735;0,002099268;
2007,807;0,002129907;
2005,878;0,002163301;
2003,949;0,002205442;
2002,021;0,002238051;
2000,092;0,002254551;
1998,163;0,002276837;
1996,234;0,002319446;
1994,306;0,002370053;
1992,377;0,00241805;
1990,448;0,002467268;
1988,519;0,002519825;
1986,591;0,002569119;
1984,662;0,002609733;
1982,733;0,002654454;
1980,805;0,00270697;
1978,876;0,002752931;
1976,947;0,00279749;
1975,018;0,002852775;
1973,090;0,002915243;
1971,161;0,002977687;
1969,232;0,003043132;
1967,303;0,003122794;
1965,375;0,003217971;
1963,446;0,003308532;
1961,517;0,003387044;
1959,589;0,003483383;
1957,660;0,003602007;
1955,731;0,003704735;
1953,802;0,003789361;
1951,874;0,003888059;
1949,945;0,004002252;
1948,016;0,004117934;
1946,087;0,004238758;
1944,159;0,004358554;
1942,230;0,004478113;
1940,301;0,004624909;
1938,373;0,004798959;
1936,444;0,004981835;
1934,515;0,0051822;
1932,586;0,005407732;
1930,658;0,005649981;
1928,729;0,005905137;
1926,800;0,006164514;
1924,871;0,006422978;
1922,943;0,00670412;
1921,014;0,007026627;
1919,085;0,007384109;
1917,157;0,007771566;
1915,228;0,00818795;
1913,299;0,008634431;
1911,370;0,009116304;
1909,442;0,009645613;
1907,513;0,01023042;
1905,584;0,01085775;
1903,655;0,01153052;
1901,727;0,01227438;
1899,798;0,01310818;
1897,869;0,01405802;
1895,940;0,01513257;
1894,012;0,01630109;
1892,083;0,01755506;
1890,154;0,01892292;
1888,226;0,02040283;
1886,297;0,02195589;
1884,368;0,02355135;
1882,439;0,02517813;
1880,511;0,02683348;
1878,582;0,02849365;
1876,653;0,03011525;
1874,724;0,03166353;
1872,796;0,03312787;
1870,867;0,03456601;
1868,938;0,0361002;
1867,010;0,03775956;
1865,081;0,03940471;
1863,152;0,04085989;
1861,223;0,0419753;
1859,295;0,04262315;
1857,366;0,04272109;
1855,437;0,04225806;
1853,508;0,04127885;
1851,580;0,03983046;
1849,651;0,03795992;
1847,722;0,03573186;
1845,794;0,03324072;
1843,865;0,03066528;
1841,936;0,02819237;
1840,007;0,02583237;
1838,079;0,02356002;
1836,150;0,02143385;
1834,221;0,01948194;
1832,292;0,01769247;
1830,364;0,0160543;
1828,435;0,01458255;
1826,506;0,0132688;
1824,578;0,01207798;
1822,649;0,01100707;
1820,720;0,01003508;
1818,791;0,009136024;
1816,863;0,008318164;
1814,934;0,007599128;
1813,005;0,006985742;
1811,076;0,00647892;
1809,148;0,006082697;
1807,219;0,005776125;
1805,290;0,005518316;
1803,362;0,005280192;
1801,433;0,005038714;
1799,504;0,0047726;
1797,575;0,004480693;
1795,647;0,004173235;
1793,718;0,003869277;
1791,789;0,003610923;
1789,860;0,003403212;
1787,932;0,003194219;
1786,003;0,002965496;
1784,074;0,002746364;
1782,145;0,002550625;
1780,217;0,002378638;
1778,288;0,002233451;
1776,359;0,002104653;
1774,431;0,001983408;
1772,502;0,001866995;
1770,573;0,001757735;
1768,644;0,001658204;
1766,716;0,001566315;
1764,787;0,001487171;
1762,858;0,001420052;
1760,929;0,001360497;
1759,001;0,001301916;
1757,072;0,001235487;
1755,143;0,001162921;
1753,215;0,001092506;
1751,286;0,001041214;
1749,357;0,001012481;
1747,428;0,0009820085;
1745,500;0,0009342039;
1743,571;0,0008786025;
1741,642;0,0008252061;
1739,713;0,0007671794;
1737,785;0,0006929927;
1735,856;0,0006094354;
1733,927;0,000552079;
1731,999;0,0005352408;
1730,070;0,0005170028;
1728,141;0,0004575606;
1726,212;0,0003560781;
1724,284;0,0002488678;
1722,355;0,0001635737;
1720,426;9,982247E-5;
1718,497;5,659956E-5;
1716,569;4,448902E-5;
1714,640;5,484413E-5;
1712,711;6,872871E-5;
1710,783;6,497914E-5;
1708,854;6,429833E-5;
1706,925;8,952091E-5;
1704,996;0,0001449008;
1703,068;0,0002625889;
1701,139;0,000492451;
1699,210;0,0008853637;
1697,281;0,001509208;
1695,353;0,002548274;
1693,424;0,004096605;
1691,495;0,005965014;
1689,567;0,0076729;
1687,638;0,008558444;
1685,709;0,008345096;
1683,780;0,007357289;
1681,852;0,006212854;
1679,923;0,00524225;
1677,994;0,004511387;
1676,065;0,004017805;
1674,137;0,003695777;
1672,208;0,003454888;
1670,279;0,003219694;
1668,350;0,002992604;
1666,422;0,002793555;
1664,493;0,002586564;
1662,564;0,002360938;
1660,636;0,002160902;
1658,707;0,002002075;
1656,778;0,001861709;
1654,849;0,001730318;
1652,921;0,001627042;
1650,992;0,001560552;
1649,063;0,00149633;
1647,134;0,001421239;
1645,206;0,001354338;
1643,277;0,001296108;
1641,348;0,001240182;
1639,420;0,001193489;
1637,491;0,001156607;
1635,562;0,001123911;
1633,633;0,001104229;
1631,705;0,001089999;
1629,776;0,001060823;
1627,847;0,001019764;
1625,918;0,0009787234;
1623,990;0,000950563;
1622,061;0,0009390714;
1620,132;0,0009287203;
1618,204;0,0009118267;
1616,275;0,0008932826;
1614,346;0,0008709535;
1612,417;0,0008430624;
1610,489;0,0008193439;
1608,560;0,0008042152;
1606,631;0,000791258;
1604,702;0,0007742806;
1602,774;0,0007521443;
1600,845;0,0007321594;
1598,916;0,0007225964;
1596,988;0,0007241792;
1595,059;0,0007269618;
1593,130;0,0007230139;
1591,201;0,0007141207;
1589,273;0,0007053909;
1587,344;0,0006886528;
1585,415;0,0006604404;
1583,486;0,0006354141;
1581,558;0,0006188702;
1579,629;0,0006049355;
1577,700;0,0005876778;
1575,771;0,0005608537;
1573,843;0,0005450742;
1571,914;0,0005658061;
1569,985;0,0006017284;
1568,057;0,0006086148;
1566,128;0,0005925454;
1564,199;0,0005833136;
1562,270;0,0005776026;
1560,342;0,0005610611;
1558,413;0,0005431289;
1556,484;0,000539942;
1554,555;0,0005452411;
1552,627;0,0005471637;
1550,698;0,0005442222;
1548,769;0,0005375544;
1546,841;0,0005355817;
1544,912;0,0005389071;
1542,983;0,0005308807;
1541,054;0,0005045962;
1539,126;0,0004838655;
1537,197;0,000486952;
1535,268;0,0004997794;
1533,339;0,0004965097;
1531,411;0,0004741907;
1529,482;0,0004654171;
1527,553;0,0004833748;
1525,625;0,00050829;
1523,696;0,0005180885;
1521,767;0,0005025947;
1519,838;0,0004742364;
1517,910;0,000450799;
1515,981;0,0004410148;
1514,052;0,0004467189;
1512,123;0,0004518819;
1510,195;0,0004364925;
1508,266;0,0004207234;
1506,337;0,0004347635;
1504,409;0,0004597174;
1502,480;0,0004657964;
1500,551;0,0004542578;
1498,622;0,0004486701;
1496,694;0,0004585434;
1494,765;0,0004618051;
1492,836;0,0004507884;
1490,907;0,0004477577;
1488,979;0,0004575423;
1487,050;0,0004555824;
1485,121;0,0004421205;
1483,193;0,0004466599;
1481,264;0,0004705758;
1479,335;0,0004913666;
1477,406;0,0004927056;
1475,478;0,0004777276;
1473,549;0,0004733399;
1471,620;0,0004819058;
1469,691;0,0004720235;
1467,763;0,0004468718;
1465,834;0,0004401589;
1463,905;0,0004553139;
1461,976;0,000467672;
1460,048;0,0004675871;
1458,119;0,0004561606;
1456,190;0,0004372153;
1454,262;0,0004161287;
1452,333;0,0003842994;
1450,404;0,0003444778;
1448,475;0,0003239934;
1446,547;0,0003356264;
1444,618;0,0003695063;
1442,689;0,0004069538;
1440,760;0,0004331552;
1438,832;0,0004518549;
1436,903;0,0004759099;
1434,974;0,0004975935;
1433,046;0,00049788;
1431,117;0,0004813316;
1429,188;0,0004638229;
1427,259;0,000452188;
1425,331;0,0004460005;
1423,402;0,0004360799;
1421,473;0,0004139615;
1419,544;0,0004000213;
1417,616;0,0004000972;
1415,687;0,000399371;
1413,758;0,0004016477;
1411,830;0,0004166017;
1409,901;0,0004292756;
1407,972;0,0004314657;
1406,043;0,00044498;
1404,115;0,0004726892;
1402,186;0,0004845677;
1400,257;0,0004810922;
1398,328;0,0004834823;
1396,400;0,0004913395;
1394,471;0,0004797618;
1392,542;0,0004565988;
1390,614;0,0004617095;
1388,685;0,0004988774;
1386,756;0,0005325054;
1384,827;0,0005467799;
1382,899;0,0005429931;
1380,970;0,0005355957;
1379,041;0,0005392451;
1377,112;0,0005500392;
1375,184;0,0005610738;
1373,255;0,0005749564;
1371,326;0,0005863452;
1369,398;0,0006059622;
1367,469;0,0006458087;
1365,540;0,0006765818;
1363,611;0,000681615;
1361,683;0,0006875274;
1359,754;0,0007184073;
1357,825;0,0007689106;
1355,896;0,0008101774;
1353,968;0,0008175879;
1352,039;0,0007960553;
1350,110;0,0007600365;
1348,181;0,0007138489;
1346,253;0,0006767273;
1344,324;0,0006699247;
1342,395;0,0006766266;
1340,467;0,0006673997;
1338,538;0,0006425182;
1336,609;0,0006216093;
1334,680;0,0006221639;
1332,752;0,0006484692;
1330,823;0,0006931339;
1328,894;0,0007516825;
1326,965;0,0008222024;
1325,037;0,0008887679;
1323,108;0,0009315982;
1321,179;0,0009503885;
1319,251;0,0009445928;
1317,322;0,0008935965;
1315,393;0,0007898008;
1313,464;0,0006609882;
1311,536;0,0005527743;
1309,607;0,0005022812;
1307,678;0,000508972;
1305,749;0,0005383196;
1303,821;0,0005757936;
1301,892;0,0006283877;
1299,963;0,0006815457;
1298,035;0,0007354087;
1296,106;0,0008020236;
1294,177;0,0008714263;
1292,248;0,0009295521;
1290,320;0,0009855285;
1288,391;0,001059853;
1286,462;0,001151046;
1284,533;0,001240923;
1282,605;0,001326294;
1280,676;0,001413618;
1278,747;0,001498801;
1276,819;0,001576868;
1274,890;0,001661174;
1272,961;0,001754926;
1271,032;0,001841941;
1269,104;0,00191161;
1267,175;0,001948213;
1265,246;0,001967641;
1263,317;0,002032146;
1261,389;0,002177654;
1259,460;0,002398956;
1257,531;0,002684442;
1255,603;0,003013039;
1253,674;0,003352113;
1251,745;0,003678945;
1249,816;0,003988359;
1247,888;0,004276585;
1245,959;0,004531589;
1244,030;0,004728805;
1242,101;0,004820425;
1240,173;0,004752771;
1238,244;0,004515286;
1236,315;0,004133997;
1234,386;0,003622898;
1232,458;0,003001126;
1230,529;0,002328591;
1228,600;0,001683997;
1226,672;0,001140598;
1224,743;0,0007614286;
1222,814;0,0005725058;
1220,885;0,0005625134;
1218,957;0,0006987018;
1217,028;0,0009446524;
1215,099;0,001287751;
1213,170;0,001722137;
1211,242;0,002253171;
1209,313;0,002877721;
1207,384;0,003543421;
1205,456;0,004212373;
1203,527;0,004878062;
1201,598;0,005490379;
1199,669;0,005968532;
1197,741;0,006245483;
1195,812;0,006282044;
1193,883;0,006102693;
1191,954;0,005792302;
1190,026;0,005414843;
1188,097;0,004989518;
1186,168;0,004539593;
1184,240;0,004095955;
1182,311;0,003680468;
1180,382;0,003303418;
1178,453;0,00297094;
1176,525;0,002674551;
1174,596;0,002392408;
1172,667;0,002144344;
1170,738;0,001960182;
1168,810;0,001796802;
1166,881;0,001611253;
1164,952;0,001433723;
1163,024;0,00129283;
1161,095;0,001174405;
1159,166;0,001075812;
1157,237;0,001011125;
1155,309;0,0009596074;
1153,380;0,0008946912;
1151,451;0,0008261579;
1149,522;0,0007513372;
1147,594;0,0006691075;
1145,665;0,0006111877;
1143,736;0,0005612381;
1141,807;0,0004864162;
1139,879;0,0004139622;
1137,950;0,0003685776;
1136,021;0,0003486107;
1134,093;0,0003418462;
1132,164;0,0003229575;
1130,235;0,000282465;
1128,306;0,000241643;
1126,378;0,0002164638;
1124,449;0,0002146779;
1122,520;0,0002242942;
1120,591;0,0002275214;
1118,663;0,0002324135;
1116,734;0,0002497926;
1114,805;0,0002735012;
1112,877;0,0002872249;
1110,948;0,000298699;
1109,019;0,0003436713;
1107,090;0,0003903198;
1105,162;0,0003893816;
1103,233;0,0003604002;
1101,304;0,0003303092;
1099,375;0,0002928923;
1097,447;0,0002374717;
1095,518;0,0001760275;
1093,589;0,0001359948;
1091,661;0,0001209767;
1089,732;0,0001026483;
1087,803;8,185521E-5;
1085,874;7,806439E-5;
1083,946;9,153096E-5;
1082,017;0,0001062384;
1080,088;0,0001333436;
1078,159;0,0001419246;
1076,231;0,0001202958;
1074,302;0,0001093753;
1072,373;9,626672E-5;
1070,445;9,427471E-5;
1068,516;0,0001426754;
1066,587;0,0001511104;
1064,658;0,0001507916;
1062,730;0,000173439;
1060,801;0,0001827313;
1058,872;0,0001286025;
1056,943;8,868412E-5;
1055,015;0,0001036546;
1053,086;0,0001119904;
1051,157;0,000124932;
1049,229;0,0001132755;
1047,300;6,807997E-5;
1045,371;8,101627E-5;
1043,442;9,177433E-5;
1041,514;7,961703E-5;
1039,585;8,329564E-5;
1037,656;0,0001046203;
1035,727;0,000141361;
1033,799;0,0001738233;
1031,870;0,0001740544;
1029,941;0,0001405194;
1028,012;0,0001210327;
1026,084;0,0001054117;
1024,155;9,206594E-5;
1022,226;7,098515E-5;
1020,298;4,569393E-5;
1018,369;5,907728E-5;
1016,440;5,422596E-5;
1014,511;5,503361E-5;
1012,583;8,782329E-5;
1010,654;9,604443E-5;
1008,725;6,355477E-5;
1006,796;6,826261E-5;
1004,868;6,156066E-5;
1002,939;6,822272E-5;
1001,010;6,580456E-5;
999,082;7,187699E-5;
997,153;7,688004E-5;
995,224;9,521252E-5;
993,295;8,673885E-5;
991,367;5,228118E-5;
989,438;5,758221E-5;
987,509;7,895735E-5;
985,580;6,193093E-5;
983,652;5,306831E-5;
981,723;4,92997E-5;
979,794;4,403128E-5;
977,866;5,578125E-5;
975,937;7,099679E-5;
974,008;8,478218E-5;
972,079;8,8441E-5;
970,151;7,930334E-5;
968,222;6,592618E-5;
966,293;4,563128E-5;
964,364;1,29118E-5;
962,436;6,654266E-5;
960,507;7,844511E-5;
958,578;4,956469E-5;
956,650;6,297145E-5;
954,721;6,178409E-5;
952,792;3,263805E-5;
950,863;4,402532E-5;
948,935;6,866796E-5;
947,006;7,356765E-5;
945,077;7,924483E-5;
943,148;8,134591E-5;
941,220;0,0001065904;
939,291;0,0001380085;
937,362;0,0001169195;
935,434;5,876421E-5;
933,505;5,498661E-5;
931,576;5,975366E-5;
929,647;3,077967E-5;
927,719;2,752276E-5;
925,790;4,170009E-5;
923,861;5,912471E-5;
921,932;8,727723E-5;
920,004;0,0001215145;
918,075;0,0001225512;
916,146;8,597062E-5;
914,217;5,884576E-5;
912,289;6,446576E-5;
910,360;8,685119E-5;
908,431;8,209008E-5;
906,503;7,869866E-5;
904,574;5,733875E-5;
902,645;6,598987E-5;
900,716;0,0001038158;
898,788;0,0001183883;
896,859;0,000127385;
894,930;9,607017E-5;
893,001;9,705484E-5;
891,073;8,917828E-5;
889,144;7,4454E-5;
887,215;4,076293E-5;
885,287;5,730299E-5;
883,358;9,132671E-5;
881,429;9,842067E-5;
879,500;0,000113144;
877,572;0,0001457537;
875,643;0,000137559;
873,714;8,358323E-5;
871,785;5,704605E-5;
869,857;7,236958E-5;
867,928;9,741988E-5;
865,999;0,000104229;
864,071;8,660232E-5;
862,142;7,235874E-5;
860,213;7,433123E-5;
858,284;9,918733E-5;
856,356;0,0001211179;
854,427;8,331127E-5;
852,498;2,624875E-5;
850,569;8,440004E-5;
848,641;8,437341E-5;
846,712;8,318023E-5;
844,783;5,527305E-5;
842,855;8,650788E-5;
840,926;9,09426E-5;
838,997;9,853562E-5;
837,068;0,0001273569;
835,140;0,0001170421;
833,211;0,0001148337;
831,282;0,0001258194;
829,353;0,000133715;
827,425;0,0001507239;
825,496;0,0001433373;
823,567;0,0001668597;
821,639;0,0001870422;
819,710;0,0001338877;
817,781;8,909809E-5;
815,852;7,938346E-5;
813,924;4,024822E-5;
811,995;6,953409E-5;
810,066;0,0001496553;
808,137;0,0002072905;
806,209;0,0001769884;
804,280;0,0001623941;
802,351;0,0001648371;
800,422;0,0001365398;
798,494;7,181356E-5;
796,565;5,068647E-5;
794,636;0,0001030009;
792,708;9,610167E-5;
790,779;5,59133E-5;
788,850;4,491214E-5;
786,921;0,0001170877;
784,993;0,0001394407;
783,064;0,0001028792;
781,135;0,0001378291;
779,206;0,0001313158;
777,278;0,0001088146;
775,349;8,091994E-5;
773,420;8,415467E-5;
771,492;8,814865E-5;
769,563;8,700862E-5;
767,634;5,86598E-5;
765,705;3,997995E-5;
763,777;8,004517E-5;
761,848;7,367109E-5;
759,919;6,641316E-5;
757,990;9,620652E-5;
756,062;9,306075E-5;
754,133;9,467571E-5;
752,204;9,311144E-5;
750,276;0,0001417609;
748,347;0,0001388047;
746,418;0,000182476;
744,489;0,0001947931;
742,561;0,0001941454;
740,632;0,0001420272;
738,703;7,563885E-5;
736,774;0,0001056876;
734,846;0,0001361016;
732,917;9,332463E-5;
730,988;0,0001071973;
729,060;0,0001477325;
727,131;0,0001436553;
725,202;0,0001333003;
723,273;0,0001206613;
721,345;0,0001187651;
719,416;0,000108713;
717,487;0,0001030686;
715,558;0,0001473727;
713,630;0,000218142;
711,701;0,0002023088;
709,772;0,0001635797;
707,843;0,0002390742;
705,915;0,0002626336;
703,986;0,0002210313;
702,057;0,000150029;
700,129;0,0001283784;
698,200;0,0001132643;
696,271;0,0001231561;
694,342;0,0001134115;
692,414;0,0001311484;
690,485;0,00012;
688,556;0,0001210543;
686,627;0,0002081677;
684,699;0,0002578955;
682,770;0,0002175576;
680,841;0,0001154139;
678,913;4,262459E-5;
676,984;5,754444E-5;
675,055;0,0001336723;
673,126;0,0001627784;
671,198;7,6573E-5;
669,269;3,892359E-5;
667,340;9,153214E-5;
665,411;0,0001732519;
663,483;0,0001982575;
661,554;0,0001678327;
659,625;0,000167877;
657,697;0,0001556169;
655,768;0,0001322363;
653,839;0,0002026411;
651,910;0,0002119483;
649,982;0,0002858127;
648,053;0,000270954;
646,124;0,0001876733;
644,195;0,0001335389;
642,267;0,0001251301;
640,338;0,0001833846;
638,409;0,0001434634;
636,481;8,182097E-5;
634,552;7,971602E-5;
632,623;9,857375E-5;
630,694;0,0001633604;
628,766;0,000184477;
626,837;0,0002349487;
624,908;0,0002478277;
622,979;0,0001684186;
621,051;0,0001383063;
619,122;0,0002180113;
617,193;0,0002931824;
615,265;0,0002372115;
613,336;0,0001095427;
611,407;0,0001428752;
609,478;0,0001382259;
607,550;0,0001268549;
605,621;0,0001334937;
603,692;0,0001740941;
601,763;0,0003400699;
599,835;0,00031639;
597,906;0,0002548122;
595,977;0,0002535994;
594,048;0,0002034776;
592,120;0,0001747375;
590,191;0,0001588634;
588,262;0,0002332693;
586,334;0,0002851343;
584,405;0,0004497134;
582,476;0,0005282123;
580,547;0,0004054148;
578,619;0,0003456438;
576,690;0,0003925828;
574,761;0,000266715;
572,832;0,0001392794;
570,904;0,0001984752;
568,975;0,0002882289;
567,046;0,0002484147;
565,118;0,0002806482;
563,189;0,000271779;
561,260;0,0003671489;
559,331;0,0003918758;
557,403;0,0004511456;
555,474;0,000396177;
553,545;0,0002961566;
551,616;0,0004783864;
549,688;0,0005938243;
547,759;0,0004158826;
545,830;0,0001814063;
543,902;0,0003720536;
541,973;0,0005284647;
540,044;0,0006460143;
538,115;0,0006205048;
536,187;0,0004571826;
534,258;0,0002974182;
532,329;0,0003256883;
530,400;0,0004192035;
528,472;0,0004268368;
526,543;0,0002716933;
524,614;0,0002500385;
522,686;0,0004106005;
520,757;0,0003883647;
518,828;0,0003620942;
516,899;0,0004149127;
514,971;0,0003485651;
513,042;0,0002707155;
511,113;0,0004262108;
509,184;0,0005464026;
507,256;0,0004884484;
505,327;0,0003994534;
503,398;0,0005200496;
501,470;0,0006040977;
499,541;0,0005622875;
497,612;0,0005261155;
495,683;0,0005077238;
493,755;0,0005535426;
491,826;0,0005262568;
489,897;0,0005072953;
487,968;0,0005917039;
486,040;0,000533832;
484,111;0,000400722;
482,182;0,0002911934;
480,253;0,000407915;
478,325;0,000594425;
476,396;0,0005793708;
474,467;0,0006727033;
472,539;0,000873285;
470,610;0,0008224179;
468,681;0,0007440603;
466,752;0,000655191;
464,824;0,0004259676;
462,895;0,0002982877;
460,966;0,0005409069;
459,037;0,0008094353;
457,109;0,0006597012;
455,180;0,0009947069;
453,251;0,001068331;
451,323;0,000716541;
449,394;0,0007080755;
447,465;0,001016582;
445,536;0,0009801815;
443,608;0,0008061111;
441,679;0,0006292674;
439,750;0,0007209785;
437,821;0,001199168;
435,893;0,001324555;
433,964;0,0006850493;
432,035;0,000615069;
430,107;0,001067839;
428,178;0,00154404;
426,249;0,001947241;
424,320;0,001328656;
422,392;0,0005043448;
420,463;0,001186073;
418,534;0,001209239;
416,605;0,001167821;
414,677;0,001908265;
412,748;0,00228821;
410,819;0,003234007;
408,891;0,002821108;
406,962;0,001781315;
405,033;0,001820965;
403,104;0,00260101;
401,176;0,002454279;
399,247;0,002648417;
397,318;0,003111395;
395,389;0,003669716;
393,461;0,003955083;
391,532;0,003151627;
389,603;0,00364995;
387,675;0,003854279;
385,746;0,003980994;
383,817;0,00427011;
381,888;0,005222698;
379,960;0,00592054;
378,031;0,005327999;
376,102;0,00462199;
374,173;0,00445016;
