Created as New Dataset,d2o 041 By Administrator Date Tuesday, December 14 2021
cm-1,%T
7000.00,4.49
6999.00,4.48
6998.00,4.47
6997.00,4.46
6996.00,4.46
6995.00,4.47
6994.00,4.47
6993.00,4.47
6992.00,4.46
6991.00,4.46
6990.00,4.46
6989.00,4.46
6988.00,4.45
6987.00,4.44
6986.00,4.43
6985.00,4.43
6984.00,4.44
6983.00,4.45
6982.00,4.45
6981.00,4.45
6980.00,4.45
6979.00,4.46
6978.00,4.47
6977.00,4.47
6976.00,4.47
6975.00,4.48
6974.00,4.49
6973.00,4.49
6972.00,4.48
6971.00,4.47
6970.00,4.46
6969.00,4.45
6968.00,4.45
6967.00,4.46
6966.00,4.46
6965.00,4.47
6964.00,4.48
6963.00,4.49
6962.00,4.50
6961.00,4.50
6960.00,4.50
6959.00,4.50
6958.00,4.51
6957.00,4.51
6956.00,4.52
6955.00,4.53
6954.00,4.54
6953.00,4.55
6952.00,4.56
6951.00,4.57
6950.00,4.57
6949.00,4.58
6948.00,4.58
6947.00,4.59
6946.00,4.60
6945.00,4.61
6944.00,4.61
6943.00,4.62
6942.00,4.63
6941.00,4.64
6940.00,4.65
6939.00,4.67
6938.00,4.68
6937.00,4.69
6936.00,4.71
6935.00,4.72
6934.00,4.73
6933.00,4.75
6932.00,4.76
6931.00,4.78
6930.00,4.80
6929.00,4.82
6928.00,4.84
6927.00,4.85
6926.00,4.87
6925.00,4.89
6924.00,4.91
6923.00,4.93
6922.00,4.94
6921.00,4.96
6920.00,4.99
6919.00,5.01
6918.00,5.03
6917.00,5.05
6916.00,5.07
6915.00,5.09
6914.00,5.11
6913.00,5.13
6912.00,5.15
6911.00,5.18
6910.00,5.20
6909.00,5.23
6908.00,5.25
6907.00,5.28
6906.00,5.30
6905.00,5.31
6904.00,5.33
6903.00,5.34
6902.00,5.37
6901.00,5.39
6900.00,5.42
6899.00,5.45
6898.00,5.48
6897.00,5.51
6896.00,5.54
6895.00,5.56
6894.00,5.59
6893.00,5.63
6892.00,5.66
6891.00,5.70
6890.00,5.73
6889.00,5.76
6888.00,5.79
6887.00,5.83
6886.00,5.86
6885.00,5.89
6884.00,5.92
6883.00,5.95
6882.00,5.99
6881.00,6.03
6880.00,6.07
6879.00,6.11
6878.00,6.15
6877.00,6.20
6876.00,6.24
6875.00,6.28
6874.00,6.31
6873.00,6.34
6872.00,6.36
6871.00,6.39
6870.00,6.42
6869.00,6.46
6868.00,6.50
6867.00,6.55
6866.00,6.59
6865.00,6.64
6864.00,6.68
6863.00,6.72
6862.00,6.76
6861.00,6.81
6860.00,6.85
6859.00,6.89
6858.00,6.94
6857.00,6.99
6856.00,7.05
6855.00,7.11
6854.00,7.16
6853.00,7.22
6852.00,7.27
6851.00,7.33
6850.00,7.38
6849.00,7.43
6848.00,7.48
6847.00,7.52
6846.00,7.57
6845.00,7.62
6844.00,7.68
6843.00,7.73
6842.00,7.79
6841.00,7.85
6840.00,7.91
6839.00,7.97
6838.00,8.02
6837.00,8.08
6836.00,8.13
6835.00,8.18
6834.00,8.24
6833.00,8.30
6832.00,8.36
6831.00,8.42
6830.00,8.48
6829.00,8.55
6828.00,8.61
6827.00,8.67
6826.00,8.72
6825.00,8.78
6824.00,8.85
6823.00,8.92
6822.00,8.99
6821.00,9.06
6820.00,9.11
6819.00,9.17
6818.00,9.24
6817.00,9.30
6816.00,9.35
6815.00,9.41
6814.00,9.47
6813.00,9.54
6812.00,9.62
6811.00,9.69
6810.00,9.77
6809.00,9.84
6808.00,9.90
6807.00,9.97
6806.00,10.04
6805.00,10.10
6804.00,10.17
6803.00,10.23
6802.00,10.30
6801.00,10.37
6800.00,10.43
6799.00,10.50
6798.00,10.57
6797.00,10.63
6796.00,10.70
6795.00,10.76
6794.00,10.83
6793.00,10.89
6792.00,10.96
6791.00,11.03
6790.00,11.09
6789.00,11.15
6788.00,11.21
6787.00,11.27
6786.00,11.33
6785.00,11.40
6784.00,11.46
6783.00,11.52
6782.00,11.58
6781.00,11.63
6780.00,11.67
6779.00,11.72
6778.00,11.77
6777.00,11.82
6776.00,11.86
6775.00,11.91
6774.00,11.96
6773.00,12.01
6772.00,12.06
6771.00,12.12
6770.00,12.17
6769.00,12.22
6768.00,12.26
6767.00,12.30
6766.00,12.34
6765.00,12.36
6764.00,12.39
6763.00,12.42
6762.00,12.45
6761.00,12.48
6760.00,12.50
6759.00,12.53
6758.00,12.56
6757.00,12.58
6756.00,12.59
6755.00,12.61
6754.00,12.63
6753.00,12.65
6752.00,12.66
6751.00,12.67
6750.00,12.68
6749.00,12.69
6748.00,12.69
6747.00,12.68
6746.00,12.68
6745.00,12.67
6744.00,12.67
6743.00,12.67
6742.00,12.67
6741.00,12.66
6740.00,12.66
6739.00,12.65
6738.00,12.64
6737.00,12.63
6736.00,12.62
6735.00,12.61
6734.00,12.59
6733.00,12.57
6732.00,12.55
6731.00,12.52
6730.00,12.49
6729.00,12.46
6728.00,12.43
6727.00,12.41
6726.00,12.38
6725.00,12.36
6724.00,12.33
6723.00,12.29
6722.00,12.26
6721.00,12.23
6720.00,12.20
6719.00,12.16
6718.00,12.13
6717.00,12.10
6716.00,12.08
6715.00,12.04
6714.00,12.00
6713.00,11.96
6712.00,11.91
6711.00,11.87
6710.00,11.83
6709.00,11.78
6708.00,11.74
6707.00,11.70
6706.00,11.66
6705.00,11.62
6704.00,11.57
6703.00,11.53
6702.00,11.49
6701.00,11.45
6700.00,11.41
6699.00,11.36
6698.00,11.32
6697.00,11.28
6696.00,11.23
6695.00,11.19
6694.00,11.14
6693.00,11.10
6692.00,11.05
6691.00,11.01
6690.00,10.96
6689.00,10.90
6688.00,10.85
6687.00,10.81
6686.00,10.76
6685.00,10.71
6684.00,10.66
6683.00,10.62
6682.00,10.58
6681.00,10.53
6680.00,10.49
6679.00,10.44
6678.00,10.40
6677.00,10.35
6676.00,10.31
6675.00,10.26
6674.00,10.22
6673.00,10.17
6672.00,10.12
6671.00,10.08
6670.00,10.04
6669.00,9.99
6668.00,9.94
6667.00,9.89
6666.00,9.84
6665.00,9.80
6664.00,9.76
6663.00,9.72
6662.00,9.68
6661.00,9.64
6660.00,9.60
6659.00,9.56
6658.00,9.51
6657.00,9.47
6656.00,9.42
6655.00,9.38
6654.00,9.33
6653.00,9.29
6652.00,9.24
6651.00,9.20
6650.00,9.17
6649.00,9.13
6648.00,9.09
6647.00,9.06
6646.00,9.02
6645.00,8.98
6644.00,8.93
6643.00,8.89
6642.00,8.85
6641.00,8.80
6640.00,8.76
6639.00,8.73
6638.00,8.69
6637.00,8.65
6636.00,8.62
6635.00,8.58
6634.00,8.54
6633.00,8.50
6632.00,8.46
6631.00,8.42
6630.00,8.38
6629.00,8.34
6628.00,8.30
6627.00,8.26
6626.00,8.23
6625.00,8.20
6624.00,8.16
6623.00,8.12
6622.00,8.08
6621.00,8.04
6620.00,8.00
6619.00,7.96
6618.00,7.92
6617.00,7.89
6616.00,7.85
6615.00,7.82
6614.00,7.78
6613.00,7.74
6612.00,7.70
6611.00,7.67
6610.00,7.64
6609.00,7.61
6608.00,7.58
6607.00,7.56
6606.00,7.53
6605.00,7.50
6604.00,7.46
6603.00,7.42
6602.00,7.38
6601.00,7.34
6600.00,7.30
6599.00,7.27
6598.00,7.24
6597.00,7.21
6596.00,7.18
6595.00,7.15
6594.00,7.12
6593.00,7.09
6592.00,7.05
6591.00,7.02
6590.00,6.99
6589.00,6.96
6588.00,6.93
6587.00,6.90
6586.00,6.87
6585.00,6.85
6584.00,6.81
6583.00,6.78
6582.00,6.74
6581.00,6.71
6580.00,6.68
6579.00,6.65
6578.00,6.62
6577.00,6.59
6576.00,6.57
6575.00,6.54
6574.00,6.51
6573.00,6.47
6572.00,6.43
6571.00,6.40
6570.00,6.37
6569.00,6.35
6568.00,6.32
6567.00,6.30
6566.00,6.28
6565.00,6.25
6564.00,6.22
6563.00,6.19
6562.00,6.16
6561.00,6.13
6560.00,6.10
6559.00,6.08
6558.00,6.05
6557.00,6.03
6556.00,6.01
6555.00,5.98
6554.00,5.96
6553.00,5.93
6552.00,5.90
6551.00,5.87
6550.00,5.84
6549.00,5.81
6548.00,5.79
6547.00,5.77
6546.00,5.74
6545.00,5.71
6544.00,5.68
6543.00,5.65
6542.00,5.62
6541.00,5.59
6540.00,5.57
6539.00,5.54
6538.00,5.51
6537.00,5.49
6536.00,5.45
6535.00,5.42
6534.00,5.38
6533.00,5.36
6532.00,5.33
6531.00,5.31
6530.00,5.29
6529.00,5.28
6528.00,5.26
6527.00,5.24
6526.00,5.23
6525.00,5.21
6524.00,5.18
6523.00,5.16
6522.00,5.13
6521.00,5.10
6520.00,5.08
6519.00,5.05
6518.00,5.02
6517.00,5.00
6516.00,4.97
6515.00,4.95
6514.00,4.93
6513.00,4.91
6512.00,4.88
6511.00,4.86
6510.00,4.84
6509.00,4.81
6508.00,4.79
6507.00,4.77
6506.00,4.75
6505.00,4.73
6504.00,4.71
6503.00,4.69
6502.00,4.66
6501.00,4.64
6500.00,4.62
6499.00,4.60
6498.00,4.57
6497.00,4.55
6496.00,4.53
6495.00,4.52
6494.00,4.50
6493.00,4.49
6492.00,4.48
6491.00,4.47
6490.00,4.44
6489.00,4.42
6488.00,4.39
6487.00,4.36
6486.00,4.35
6485.00,4.33
6484.00,4.31
6483.00,4.29
6482.00,4.27
6481.00,4.25
6480.00,4.22
6479.00,4.20
6478.00,4.18
6477.00,4.16
6476.00,4.15
6475.00,4.15
6474.00,4.14
6473.00,4.12
6472.00,4.11
6471.00,4.09
6470.00,4.08
6469.00,4.05
6468.00,4.02
6467.00,4.00
6466.00,3.99
6465.00,3.98
6464.00,3.97
6463.00,3.95
6462.00,3.94
6461.00,3.93
6460.00,3.91
6459.00,3.89
6458.00,3.87
6457.00,3.85
6456.00,3.84
6455.00,3.83
6454.00,3.82
6453.00,3.81
6452.00,3.80
6451.00,3.79
6450.00,3.78
6449.00,3.76
6448.00,3.74
6447.00,3.72
6446.00,3.70
6445.00,3.68
6444.00,3.67
6443.00,3.66
6442.00,3.65
6441.00,3.63
6440.00,3.62
6439.00,3.61
6438.00,3.60
6437.00,3.60
6436.00,3.59
6435.00,3.58
6434.00,3.57
6433.00,3.56
6432.00,3.55
6431.00,3.54
6430.00,3.53
6429.00,3.52
6428.00,3.51
6427.00,3.50
6426.00,3.50
6425.00,3.49
6424.00,3.47
6423.00,3.46
6422.00,3.45
6421.00,3.44
6420.00,3.43
6419.00,3.42
6418.00,3.41
6417.00,3.41
6416.00,3.40
6415.00,3.39
6414.00,3.39
6413.00,3.38
6412.00,3.37
6411.00,3.37
6410.00,3.36
6409.00,3.35
6408.00,3.35
6407.00,3.34
6406.00,3.34
6405.00,3.33
6404.00,3.32
6403.00,3.31
6402.00,3.31
6401.00,3.30
6400.00,3.29
6399.00,3.28
6398.00,3.28
6397.00,3.28
6396.00,3.28
6395.00,3.28
6394.00,3.27
6393.00,3.27
6392.00,3.26
6391.00,3.25
6390.00,3.24
6389.00,3.24
6388.00,3.23
6387.00,3.23
6386.00,3.23
6385.00,3.23
6384.00,3.23
6383.00,3.23
6382.00,3.23
6381.00,3.23
6380.00,3.22
6379.00,3.22
6378.00,3.22
6377.00,3.22
6376.00,3.22
6375.00,3.21
6374.00,3.21
6373.00,3.21
6372.00,3.20
6371.00,3.20
6370.00,3.20
6369.00,3.20
6368.00,3.20
6367.00,3.20
6366.00,3.21
6365.00,3.21
6364.00,3.20
6363.00,3.20
6362.00,3.20
6361.00,3.20
6360.00,3.20
6359.00,3.20
6358.00,3.21
6357.00,3.21
6356.00,3.22
6355.00,3.22
6354.00,3.22
6353.00,3.23
6352.00,3.23
6351.00,3.24
6350.00,3.24
6349.00,3.25
6348.00,3.26
6347.00,3.27
6346.00,3.27
6345.00,3.28
6344.00,3.29
6343.00,3.29
6342.00,3.30
6341.00,3.30
6340.00,3.31
6339.00,3.31
6338.00,3.32
6337.00,3.33
6336.00,3.34
6335.00,3.36
6334.00,3.37
6333.00,3.37
6332.00,3.38
6331.00,3.39
6330.00,3.40
6329.00,3.41
6328.00,3.42
6327.00,3.44
6326.00,3.46
6325.00,3.47
6324.00,3.49
6323.00,3.50
6322.00,3.51
6321.00,3.53
6320.00,3.55
6319.00,3.56
6318.00,3.58
6317.00,3.59
6316.00,3.60
6315.00,3.62
6314.00,3.63
6313.00,3.65
6312.00,3.67
6311.00,3.69
6310.00,3.72
6309.00,3.74
6308.00,3.76
6307.00,3.79
6306.00,3.81
6305.00,3.83
6304.00,3.84
6303.00,3.86
6302.00,3.88
6301.00,3.91
6300.00,3.93
6299.00,3.95
6298.00,3.97
6297.00,3.99
6296.00,4.01
6295.00,4.03
6294.00,4.06
6293.00,4.09
6292.00,4.12
6291.00,4.15
6290.00,4.18
6289.00,4.21
6288.00,4.24
6287.00,4.27
6286.00,4.30
6285.00,4.33
6284.00,4.36
6283.00,4.39
6282.00,4.42
6281.00,4.45
6280.00,4.48
6279.00,4.51
6278.00,4.54
6277.00,4.57
6276.00,4.60
6275.00,4.64
6274.00,4.68
6273.00,4.71
6272.00,4.75
6271.00,4.79
6270.00,4.82
6269.00,4.85
6268.00,4.89
6267.00,4.92
6266.00,4.96
6265.00,5.00
6264.00,5.04
6263.00,5.08
6262.00,5.12
6261.00,5.15
6260.00,5.19
6259.00,5.23
6258.00,5.26
6257.00,5.30
6256.00,5.35
6255.00,5.39
6254.00,5.44
6253.00,5.49
6252.00,5.54
6251.00,5.58
6250.00,5.63
6249.00,5.67
6248.00,5.71
6247.00,5.75
6246.00,5.80
6245.00,5.84
6244.00,5.89
6243.00,5.94
6242.00,5.98
6241.00,6.03
6240.00,6.08
6239.00,6.13
6238.00,6.18
6237.00,6.23
6236.00,6.29
6235.00,6.34
6234.00,6.39
6233.00,6.44
6232.00,6.50
6231.00,6.55
6230.00,6.61
6229.00,6.66
6228.00,6.72
6227.00,6.77
6226.00,6.83
6225.00,6.88
6224.00,6.92
6223.00,6.97
6222.00,7.03
6221.00,7.09
6220.00,7.15
6219.00,7.21
6218.00,7.27
6217.00,7.33
6216.00,7.40
6215.00,7.46
6214.00,7.51
6213.00,7.57
6212.00,7.63
6211.00,7.69
6210.00,7.75
6209.00,7.81
6208.00,7.87
6207.00,7.93
6206.00,7.99
6205.00,8.06
6204.00,8.12
6203.00,8.19
6202.00,8.25
6201.00,8.32
6200.00,8.39
6199.00,8.45
6198.00,8.52
6197.00,8.58
6196.00,8.64
6195.00,8.70
6194.00,8.76
6193.00,8.81
6192.00,8.88
6191.00,8.95
6190.00,9.02
6189.00,9.09
6188.00,9.15
6187.00,9.22
6186.00,9.28
6185.00,9.35
6184.00,9.41
6183.00,9.48
6182.00,9.55
6181.00,9.61
6180.00,9.67
6179.00,9.73
6178.00,9.79
6177.00,9.85
6176.00,9.91
6175.00,9.97
6174.00,10.03
6173.00,10.09
6172.00,10.15
6171.00,10.22
6170.00,10.28
6169.00,10.34
6168.00,10.39
6167.00,10.44
6166.00,10.49
6165.00,10.54
6164.00,10.59
6163.00,10.64
6162.00,10.69
6161.00,10.73
6160.00,10.78
6159.00,10.82
6158.00,10.86
6157.00,10.91
6156.00,10.95
6155.00,10.99
6154.00,11.03
6153.00,11.06
6152.00,11.10
6151.00,11.13
6150.00,11.16
6149.00,11.19
6148.00,11.22
6147.00,11.24
6146.00,11.27
6145.00,11.29
6144.00,11.30
6143.00,11.32
6142.00,11.34
6141.00,11.35
6140.00,11.36
6139.00,11.37
6138.00,11.38
6137.00,11.38
6136.00,11.38
6135.00,11.38
6134.00,11.38
6133.00,11.37
6132.00,11.37
6131.00,11.37
6130.00,11.37
6129.00,11.36
6128.00,11.34
6127.00,11.32
6126.00,11.31
6125.00,11.30
6124.00,11.28
6123.00,11.27
6122.00,11.25
6121.00,11.23
6120.00,11.20
6119.00,11.17
6118.00,11.14
6117.00,11.11
6116.00,11.08
6115.00,11.06
6114.00,11.03
6113.00,11.00
6112.00,10.97
6111.00,10.94
6110.00,10.91
6109.00,10.88
6108.00,10.84
6107.00,10.80
6106.00,10.76
6105.00,10.72
6104.00,10.67
6103.00,10.63
6102.00,10.59
6101.00,10.56
6100.00,10.52
6099.00,10.48
6098.00,10.44
6097.00,10.39
6096.00,10.34
6095.00,10.29
6094.00,10.25
6093.00,10.20
6092.00,10.16
6091.00,10.12
6090.00,10.08
6089.00,10.04
6088.00,9.99
6087.00,9.94
6086.00,9.90
6085.00,9.85
6084.00,9.81
6083.00,9.76
6082.00,9.72
6081.00,9.68
6080.00,9.63
6079.00,9.59
6078.00,9.54
6077.00,9.49
6076.00,9.45
6075.00,9.41
6074.00,9.37
6073.00,9.32
6072.00,9.28
6071.00,9.23
6070.00,9.18
6069.00,9.13
6068.00,9.08
6067.00,9.03
6066.00,8.99
6065.00,8.95
6064.00,8.90
6063.00,8.86
6062.00,8.82
6061.00,8.78
6060.00,8.73
6059.00,8.68
6058.00,8.63
6057.00,8.59
6056.00,8.55
6055.00,8.51
6054.00,8.47
6053.00,8.43
6052.00,8.39
6051.00,8.34
6050.00,8.30
6049.00,8.25
6048.00,8.20
6047.00,8.16
6046.00,8.12
6045.00,8.08
6044.00,8.04
6043.00,8.00
6042.00,7.97
6041.00,7.93
6040.00,7.88
6039.00,7.84
6038.00,7.80
6037.00,7.76
6036.00,7.72
6035.00,7.68
6034.00,7.64
6033.00,7.60
6032.00,7.56
6031.00,7.52
6030.00,7.48
6029.00,7.44
6028.00,7.40
6027.00,7.36
6026.00,7.32
6025.00,7.29
6024.00,7.25
6023.00,7.21
6022.00,7.18
6021.00,7.14
6020.00,7.11
6019.00,7.07
6018.00,7.04
6017.00,7.00
6016.00,6.96
6015.00,6.93
6014.00,6.88
6013.00,6.84
6012.00,6.81
6011.00,6.77
6010.00,6.74
6009.00,6.71
6008.00,6.68
6007.00,6.65
6006.00,6.61
6005.00,6.58
6004.00,6.54
6003.00,6.51
6002.00,6.47
6001.00,6.44
6000.00,6.40
5999.00,6.37
5998.00,6.33
5997.00,6.29
5996.00,6.25
5995.00,6.22
5994.00,6.19
5993.00,6.17
5992.00,6.14
5991.00,6.11
5990.00,6.08
5989.00,6.05
5988.00,6.02
5987.00,5.99
5986.00,5.96
5985.00,5.92
5984.00,5.89
5983.00,5.86
5982.00,5.82
5981.00,5.79
5980.00,5.77
5979.00,5.74
5978.00,5.71
5977.00,5.68
5976.00,5.65
5975.00,5.62
5974.00,5.59
5973.00,5.56
5972.00,5.53
5971.00,5.50
5970.00,5.47
5969.00,5.43
5968.00,5.40
5967.00,5.37
5966.00,5.34
5965.00,5.31
5964.00,5.28
5963.00,5.25
5962.00,5.22
5961.00,5.19
5960.00,5.16
5959.00,5.14
5958.00,5.11
5957.00,5.08
5956.00,5.05
5955.00,5.02
5954.00,4.99
5953.00,4.97
5952.00,4.94
5951.00,4.91
5950.00,4.89
5949.00,4.87
5948.00,4.84
5947.00,4.82
5946.00,4.78
5945.00,4.75
5944.00,4.72
5943.00,4.69
5942.00,4.66
5941.00,4.63
5940.00,4.61
5939.00,4.58
5938.00,4.56
5937.00,4.53
5936.00,4.51
5935.00,4.48
5934.00,4.46
5933.00,4.44
5932.00,4.41
5931.00,4.39
5930.00,4.36
5929.00,4.33
5928.00,4.31
5927.00,4.29
5926.00,4.26
5925.00,4.24
5924.00,4.21
5923.00,4.19
5922.00,4.16
5921.00,4.13
5920.00,4.11
5919.00,4.08
5918.00,4.05
5917.00,4.03
5916.00,4.01
5915.00,3.98
5914.00,3.97
5913.00,3.95
5912.00,3.93
5911.00,3.91
5910.00,3.89
5909.00,3.87
5908.00,3.85
5907.00,3.83
5906.00,3.80
5905.00,3.78
5904.00,3.75
5903.00,3.73
5902.00,3.71
5901.00,3.69
5900.00,3.67
5899.00,3.66
5898.00,3.64
5897.00,3.62
5896.00,3.59
5895.00,3.57
5894.00,3.55
5893.00,3.53
5892.00,3.51
5891.00,3.50
5890.00,3.49
5889.00,3.47
5888.00,3.45
5887.00,3.43
5886.00,3.41
5885.00,3.39
5884.00,3.37
5883.00,3.35
5882.00,3.33
5881.00,3.32
5880.00,3.30
5879.00,3.28
5878.00,3.27
5877.00,3.25
5876.00,3.24
5875.00,3.22
5874.00,3.20
5873.00,3.18
5872.00,3.16
5871.00,3.15
5870.00,3.13
5869.00,3.12
5868.00,3.10
5867.00,3.09
5866.00,3.07
5865.00,3.06
5864.00,3.04
5863.00,3.03
5862.00,3.02
5861.00,3.01
5860.00,2.99
5859.00,2.98
5858.00,2.96
5857.00,2.95
5856.00,2.93
5855.00,2.92
5854.00,2.91
5853.00,2.90
5852.00,2.88
5851.00,2.87
5850.00,2.85
5849.00,2.84
5848.00,2.82
5847.00,2.81
5846.00,2.80
5845.00,2.80
5844.00,2.78
5843.00,2.77
5842.00,2.76
5841.00,2.74
5840.00,2.73
5839.00,2.72
5838.00,2.71
5837.00,2.70
5836.00,2.69
5835.00,2.68
5834.00,2.67
5833.00,2.65
5832.00,2.64
5831.00,2.63
5830.00,2.62
5829.00,2.61
5828.00,2.61
5827.00,2.60
5826.00,2.59
5825.00,2.58
5824.00,2.57
5823.00,2.56
5822.00,2.54
5821.00,2.53
5820.00,2.52
5819.00,2.51
5818.00,2.50
5817.00,2.49
5816.00,2.48
5815.00,2.48
5814.00,2.47
5813.00,2.46
5812.00,2.46
5811.00,2.45
5810.00,2.44
5809.00,2.43
5808.00,2.42
5807.00,2.40
5806.00,2.39
5805.00,2.38
5804.00,2.37
5803.00,2.36
5802.00,2.36
5801.00,2.35
5800.00,2.34
5799.00,2.33
5798.00,2.32
5797.00,2.31
5796.00,2.30
5795.00,2.29
5794.00,2.28
5793.00,2.27
5792.00,2.27
5791.00,2.26
5790.00,2.26
5789.00,2.25
5788.00,2.25
5787.00,2.25
5786.00,2.24
5785.00,2.24
5784.00,2.23
5783.00,2.22
5782.00,2.22
5781.00,2.21
5780.00,2.20
5779.00,2.20
5778.00,2.19
5777.00,2.19
5776.00,2.18
5775.00,2.17
5774.00,2.17
5773.00,2.16
5772.00,2.16
5771.00,2.15
5770.00,2.15
5769.00,2.15
5768.00,2.15
5767.00,2.14
5766.00,2.14
5765.00,2.13
5764.00,2.13
5763.00,2.13
5762.00,2.12
5761.00,2.12
5760.00,2.12
5759.00,2.12
5758.00,2.11
5757.00,2.11
5756.00,2.11
5755.00,2.11
5754.00,2.11
5753.00,2.12
5752.00,2.12
5751.00,2.12
5750.00,2.12
5749.00,2.11
5748.00,2.11
5747.00,2.11
5746.00,2.12
5745.00,2.12
5744.00,2.13
5743.00,2.13
5742.00,2.13
5741.00,2.13
5740.00,2.13
5739.00,2.13
5738.00,2.13
5737.00,2.14
5736.00,2.14
5735.00,2.14
5734.00,2.15
5733.00,2.15
5732.00,2.16
5731.00,2.17
5730.00,2.18
5729.00,2.19
5728.00,2.19
5727.00,2.20
5726.00,2.20
5725.00,2.20
5724.00,2.21
5723.00,2.21
5722.00,2.21
5721.00,2.22
5720.00,2.23
5719.00,2.24
5718.00,2.25
5717.00,2.26
5716.00,2.27
5715.00,2.29
5714.00,2.29
5713.00,2.30
5712.00,2.31
5711.00,2.32
5710.00,2.33
5709.00,2.35
5708.00,2.36
5707.00,2.38
5706.00,2.39
5705.00,2.40
5704.00,2.42
5703.00,2.44
5702.00,2.46
5701.00,2.47
5700.00,2.49
5699.00,2.50
5698.00,2.51
5697.00,2.51
5696.00,2.53
5695.00,2.54
5694.00,2.56
5693.00,2.58
5692.00,2.60
5691.00,2.62
5690.00,2.64
5689.00,2.65
5688.00,2.68
5687.00,2.70
5686.00,2.72
5685.00,2.75
5684.00,2.77
5683.00,2.79
5682.00,2.81
5681.00,2.82
5680.00,2.84
5679.00,2.86
5678.00,2.88
5677.00,2.90
5676.00,2.92
5675.00,2.95
5674.00,2.97
5673.00,2.99
5672.00,3.01
5671.00,3.03
5670.00,3.06
5669.00,3.08
5668.00,3.11
5667.00,3.14
5666.00,3.16
5665.00,3.19
5664.00,3.22
5663.00,3.24
5662.00,3.27
5661.00,3.30
5660.00,3.33
5659.00,3.36
5658.00,3.39
5657.00,3.42
5656.00,3.46
5655.00,3.49
5654.00,3.51
5653.00,3.54
5652.00,3.57
5651.00,3.60
5650.00,3.63
5649.00,3.67
5648.00,3.70
5647.00,3.74
5646.00,3.77
5645.00,3.81
5644.00,3.84
5643.00,3.87
5642.00,3.91
5641.00,3.94
5640.00,3.98
5639.00,4.02
5638.00,4.06
5637.00,4.10
5636.00,4.14
5635.00,4.18
5634.00,4.21
5633.00,4.25
5632.00,4.29
5631.00,4.33
5630.00,4.37
5629.00,4.41
5628.00,4.45
5627.00,4.49
5626.00,4.53
5625.00,4.58
5624.00,4.62
5623.00,4.66
5622.00,4.71
5621.00,4.76
5620.00,4.80
5619.00,4.85
5618.00,4.89
5617.00,4.94
5616.00,4.98
5615.00,5.03
5614.00,5.08
5613.00,5.13
5612.00,5.18
5611.00,5.23
5610.00,5.28
5609.00,5.33
5608.00,5.38
5607.00,5.43
5606.00,5.48
5605.00,5.53
5604.00,5.58
5603.00,5.64
5602.00,5.69
5601.00,5.74
5600.00,5.80
5599.00,5.86
5598.00,5.91
5597.00,5.97
5596.00,6.03
5595.00,6.09
5594.00,6.14
5593.00,6.20
5592.00,6.25
5591.00,6.31
5590.00,6.37
5589.00,6.43
5588.00,6.49
5587.00,6.55
5586.00,6.61
5585.00,6.67
5584.00,6.73
5583.00,6.80
5582.00,6.86
5581.00,6.92
5580.00,6.98
5579.00,7.04
5578.00,7.10
5577.00,7.17
5576.00,7.23
5575.00,7.29
5574.00,7.36
5573.00,7.42
5572.00,7.49
5571.00,7.55
5570.00,7.61
5569.00,7.68
5568.00,7.74
5567.00,7.81
5566.00,7.87
5565.00,7.93
5564.00,8.00
5563.00,8.06
5562.00,8.12
5561.00,8.17
5560.00,8.23
5559.00,8.30
5558.00,8.36
5557.00,8.42
5556.00,8.48
5555.00,8.53
5554.00,8.59
5553.00,8.64
5552.00,8.70
5551.00,8.75
5550.00,8.80
5549.00,8.85
5548.00,8.90
5547.00,8.95
5546.00,8.99
5545.00,9.04
5544.00,9.09
5543.00,9.13
5542.00,9.17
5541.00,9.21
5540.00,9.25
5539.00,9.28
5538.00,9.31
5537.00,9.34
5536.00,9.37
5535.00,9.40
5534.00,9.42
5533.00,9.44
5532.00,9.45
5531.00,9.47
5530.00,9.49
5529.00,9.51
5528.00,9.53
5527.00,9.54
5526.00,9.55
5525.00,9.56
5524.00,9.56
5523.00,9.56
5522.00,9.56
5521.00,9.56
5520.00,9.56
5519.00,9.55
5518.00,9.53
5517.00,9.52
5516.00,9.51
5515.00,9.49
5514.00,9.48
5513.00,9.46
5512.00,9.45
5511.00,9.43
5510.00,9.41
5509.00,9.38
5508.00,9.36
5507.00,9.33
5506.00,9.30
5505.00,9.28
5504.00,9.25
5503.00,9.22
5502.00,9.19
5501.00,9.17
5500.00,9.13
5499.00,9.10
5498.00,9.06
5497.00,9.03
5496.00,8.99
5495.00,8.95
5494.00,8.92
5493.00,8.88
5492.00,8.84
5491.00,8.80
5490.00,8.76
5489.00,8.72
5488.00,8.68
5487.00,8.65
5486.00,8.61
5485.00,8.57
5484.00,8.53
5483.00,8.49
5482.00,8.45
5481.00,8.40
5480.00,8.36
5479.00,8.32
5478.00,8.28
5477.00,8.24
5476.00,8.19
5475.00,8.15
5474.00,8.11
5473.00,8.06
5472.00,8.02
5471.00,7.98
5470.00,7.93
5469.00,7.89
5468.00,7.85
5467.00,7.81
5466.00,7.77
5465.00,7.73
5464.00,7.68
5463.00,7.64
5462.00,7.59
5461.00,7.55
5460.00,7.51
5459.00,7.47
5458.00,7.43
5457.00,7.39
5456.00,7.35
5455.00,7.31
5454.00,7.26
5453.00,7.22
5452.00,7.18
5451.00,7.15
5450.00,7.11
5449.00,7.07
5448.00,7.03
5447.00,6.98
5446.00,6.94
5445.00,6.90
5444.00,6.86
5443.00,6.82
5442.00,6.79
5441.00,6.75
5440.00,6.71
5439.00,6.67
5438.00,6.64
5437.00,6.60
5436.00,6.56
5435.00,6.52
5434.00,6.48
5433.00,6.44
5432.00,6.41
5431.00,6.37
5430.00,6.33
5429.00,6.30
5428.00,6.26
5427.00,6.23
5426.00,6.19
5425.00,6.16
5424.00,6.13
5423.00,6.09
5422.00,6.06
5421.00,6.02
5420.00,5.99
5419.00,5.95
5418.00,5.92
5417.00,5.88
5416.00,5.85
5415.00,5.81
5414.00,5.78
5413.00,5.75
5412.00,5.71
5411.00,5.68
5410.00,5.64
5409.00,5.61
5408.00,5.57
5407.00,5.54
5406.00,5.51
5405.00,5.48
5404.00,5.45
5403.00,5.42
5402.00,5.39
5401.00,5.36
5400.00,5.33
5399.00,5.31
5398.00,5.28
5397.00,5.25
5396.00,5.21
5395.00,5.18
5394.00,5.15
5393.00,5.12
5392.00,5.09
5391.00,5.05
5390.00,5.02
5389.00,4.99
5388.00,4.96
5387.00,4.93
5386.00,4.90
5385.00,4.88
5384.00,4.85
5383.00,4.82
5382.00,4.79
5381.00,4.76
5380.00,4.73
5379.00,4.70
5378.00,4.67
5377.00,4.64
5376.00,4.61
5375.00,4.58
5374.00,4.55
5373.00,4.52
5372.00,4.50
5371.00,4.47
5370.00,4.44
5369.00,4.42
5368.00,4.39
5367.00,4.36
5366.00,4.33
5365.00,4.31
5364.00,4.28
5363.00,4.25
5362.00,4.23
5361.00,4.20
5360.00,4.17
5359.00,4.14
5358.00,4.12
5357.00,4.09
5356.00,4.06
5355.00,4.03
5354.00,4.01
5353.00,3.98
5352.00,3.96
5351.00,3.94
5350.00,3.91
5349.00,3.89
5348.00,3.86
5347.00,3.83
5346.00,3.80
5345.00,3.78
5344.00,3.75
5343.00,3.73
5342.00,3.71
5341.00,3.69
5340.00,3.66
5339.00,3.64
5338.00,3.62
5337.00,3.60
5336.00,3.57
5335.00,3.55
5334.00,3.52
5333.00,3.50
5332.00,3.48
5331.00,3.46
5330.00,3.44
5329.00,3.41
5328.00,3.38
5327.00,3.36
5326.00,3.33
5325.00,3.31
5324.00,3.29
5323.00,3.27
5322.00,3.25
5321.00,3.23
5320.00,3.21
5319.00,3.19
5318.00,3.16
5317.00,3.14
5316.00,3.12
5315.00,3.11
5314.00,3.09
5313.00,3.08
5312.00,3.06
5311.00,3.04
5310.00,3.01
5309.00,2.99
5308.00,2.97
5307.00,2.95
5306.00,2.93
5305.00,2.91
5304.00,2.89
5303.00,2.88
5302.00,2.86
5301.00,2.84
5300.00,2.82
5299.00,2.80
5298.00,2.78
5297.00,2.76
5296.00,2.75
5295.00,2.73
5294.00,2.71
5293.00,2.70
5292.00,2.68
5291.00,2.66
5290.00,2.65
5289.00,2.63
5288.00,2.61
5287.00,2.60
5286.00,2.58
5285.00,2.56
5284.00,2.55
5283.00,2.53
5282.00,2.51
5281.00,2.50
5280.00,2.48
5279.00,2.47
5278.00,2.45
5277.00,2.43
5276.00,2.42
5275.00,2.41
5274.00,2.39
5273.00,2.38
5272.00,2.36
5271.00,2.35
5270.00,2.34
5269.00,2.32
5268.00,2.31
5267.00,2.29
5266.00,2.28
5265.00,2.26
5264.00,2.25
5263.00,2.24
5262.00,2.22
5261.00,2.21
5260.00,2.20
5259.00,2.19
5258.00,2.17
5257.00,2.16
5256.00,2.15
5255.00,2.14
5254.00,2.12
5253.00,2.10
5252.00,2.09
5251.00,2.07
5250.00,2.06
5249.00,2.05
5248.00,2.04
5247.00,2.03
5246.00,2.02
5245.00,2.01
5244.00,2.00
5243.00,1.98
5242.00,1.97
5241.00,1.96
5240.00,1.95
5239.00,1.94
5238.00,1.93
5237.00,1.92
5236.00,1.91
5235.00,1.90
5234.00,1.89
5233.00,1.88
5232.00,1.87
5231.00,1.86
5230.00,1.85
5229.00,1.83
5228.00,1.82
5227.00,1.81
5226.00,1.80
5225.00,1.79
5224.00,1.78
5223.00,1.77
5222.00,1.75
5221.00,1.74
5220.00,1.73
5219.00,1.72
5218.00,1.71
5217.00,1.71
5216.00,1.70
5215.00,1.69
5214.00,1.68
5213.00,1.67
5212.00,1.66
5211.00,1.65
5210.00,1.64
5209.00,1.63
5208.00,1.61
5207.00,1.60
5206.00,1.59
5205.00,1.58
5204.00,1.57
5203.00,1.57
5202.00,1.56
5201.00,1.56
5200.00,1.55
5199.00,1.55
5198.00,1.54
5197.00,1.53
5196.00,1.52
5195.00,1.52
5194.00,1.51
5193.00,1.50
5192.00,1.49
5191.00,1.48
5190.00,1.48
5189.00,1.47
5188.00,1.46
5187.00,1.46
5186.00,1.45
5185.00,1.44
5184.00,1.44
5183.00,1.43
5182.00,1.43
5181.00,1.43
5180.00,1.42
5179.00,1.42
5178.00,1.41
5177.00,1.40
5176.00,1.40
5175.00,1.39
5174.00,1.39
5173.00,1.38
5172.00,1.38
5171.00,1.38
5170.00,1.38
5169.00,1.37
5168.00,1.37
5167.00,1.37
5166.00,1.36
5165.00,1.36
5164.00,1.35
5163.00,1.35
5162.00,1.35
5161.00,1.35
5160.00,1.35
5159.00,1.34
5158.00,1.34
5157.00,1.34
5156.00,1.34
5155.00,1.34
5154.00,1.34
5153.00,1.34
5152.00,1.34
5151.00,1.34
5150.00,1.34
5149.00,1.34
5148.00,1.34
5147.00,1.34
5146.00,1.34
5145.00,1.34
5144.00,1.34
5143.00,1.33
5142.00,1.33
5141.00,1.34
5140.00,1.34
5139.00,1.34
5138.00,1.34
5137.00,1.34
5136.00,1.34
5135.00,1.34
5134.00,1.34
5133.00,1.34
5132.00,1.35
5131.00,1.35
5130.00,1.36
5129.00,1.37
5128.00,1.37
5127.00,1.37
5126.00,1.37
5125.00,1.37
5124.00,1.38
5123.00,1.38
5122.00,1.39
5121.00,1.39
5120.00,1.40
5119.00,1.40
5118.00,1.41
5117.00,1.41
5116.00,1.41
5115.00,1.42
5114.00,1.43
5113.00,1.44
5112.00,1.45
5111.00,1.45
5110.00,1.45
5109.00,1.46
5108.00,1.46
5107.00,1.47
5106.00,1.48
5105.00,1.48
5104.00,1.49
5103.00,1.50
5102.00,1.50
5101.00,1.51
5100.00,1.52
5099.00,1.53
5098.00,1.54
5097.00,1.55
5096.00,1.56
5095.00,1.57
5094.00,1.58
5093.00,1.59
5092.00,1.60
5091.00,1.61
5090.00,1.62
5089.00,1.63
5088.00,1.65
5087.00,1.66
5086.00,1.68
5085.00,1.69
5084.00,1.70
5083.00,1.71
5082.00,1.72
5081.00,1.74
5080.00,1.75
5079.00,1.76
5078.00,1.77
5077.00,1.78
5076.00,1.80
5075.00,1.81
5074.00,1.83
5073.00,1.84
5072.00,1.86
5071.00,1.87
5070.00,1.89
5069.00,1.91
5068.00,1.93
5067.00,1.95
5066.00,1.97
5065.00,1.99
5064.00,2.00
5063.00,2.02
5062.00,2.03
5061.00,2.05
5060.00,2.07
5059.00,2.09
5058.00,2.11
5057.00,2.14
5056.00,2.16
5055.00,2.18
5054.00,2.21
5053.00,2.23
5052.00,2.25
5051.00,2.27
5050.00,2.29
5049.00,2.31
5048.00,2.33
5047.00,2.36
5046.00,2.38
5045.00,2.41
5044.00,2.43
5043.00,2.46
5042.00,2.49
5041.00,2.51
5040.00,2.54
5039.00,2.56
5038.00,2.59
5037.00,2.62
5036.00,2.65
5035.00,2.68
5034.00,2.71
5033.00,2.74
5032.00,2.77
5031.00,2.80
5030.00,2.83
5029.00,2.86
5028.00,2.89
5027.00,2.92
5026.00,2.95
5025.00,2.98
5024.00,3.02
5023.00,3.05
5022.00,3.09
5021.00,3.12
5020.00,3.15
5019.00,3.19
5018.00,3.22
5017.00,3.26
5016.00,3.30
5015.00,3.34
5014.00,3.37
5013.00,3.41
5012.00,3.45
5011.00,3.49
5010.00,3.52
5009.00,3.56
5008.00,3.60
5007.00,3.65
5006.00,3.69
5005.00,3.73
5004.00,3.77
5003.00,3.81
5002.00,3.85
5001.00,3.89
5000.00,3.93
4999.00,3.98
4998.00,4.02
4997.00,4.07
4996.00,4.12
4995.00,4.16
4994.00,4.21
4993.00,4.26
4992.00,4.30
4991.00,4.35
4990.00,4.40
4989.00,4.45
4988.00,4.50
4987.00,4.55
4986.00,4.60
4985.00,4.65
4984.00,4.70
4983.00,4.76
4982.00,4.81
4981.00,4.86
4980.00,4.91
4979.00,4.97
4978.00,5.02
4977.00,5.07
4976.00,5.13
4975.00,5.18
4974.00,5.24
4973.00,5.29
4972.00,5.35
4971.00,5.41
4970.00,5.47
4969.00,5.53
4968.00,5.59
4967.00,5.65
4966.00,5.71
4965.00,5.77
4964.00,5.83
4963.00,5.89
4962.00,5.96
4961.00,6.01
4960.00,6.07
4959.00,6.13
4958.00,6.19
4957.00,6.25
4956.00,6.31
4955.00,6.37
4954.00,6.43
4953.00,6.49
4952.00,6.56
4951.00,6.62
4950.00,6.68
4949.00,6.74
4948.00,6.80
4947.00,6.85
4946.00,6.91
4945.00,6.97
4944.00,7.02
4943.00,7.08
4942.00,7.13
4941.00,7.19
4940.00,7.24
4939.00,7.29
4938.00,7.34
4937.00,7.39
4936.00,7.44
4935.00,7.49
4934.00,7.54
4933.00,7.58
4932.00,7.62
4931.00,7.66
4930.00,7.70
4929.00,7.74
4928.00,7.78
4927.00,7.81
4926.00,7.84
4925.00,7.88
4924.00,7.90
4923.00,7.93
4922.00,7.95
4921.00,7.97
4920.00,7.99
4919.00,8.00
4918.00,8.02
4917.00,8.03
4916.00,8.04
4915.00,8.05
4914.00,8.05
4913.00,8.06
4912.00,8.06
4911.00,8.06
4910.00,8.06
4909.00,8.05
4908.00,8.05
4907.00,8.04
4906.00,8.03
4905.00,8.02
4904.00,8.00
4903.00,7.99
4902.00,7.97
4901.00,7.95
4900.00,7.93
4899.00,7.90
4898.00,7.88
4897.00,7.85
4896.00,7.83
4895.00,7.80
4894.00,7.77
4893.00,7.74
4892.00,7.71
4891.00,7.67
4890.00,7.64
4889.00,7.60
4888.00,7.57
4887.00,7.53
4886.00,7.50
4885.00,7.46
4884.00,7.43
4883.00,7.39
4882.00,7.35
4881.00,7.31
4880.00,7.26
4879.00,7.22
4878.00,7.19
4877.00,7.15
4876.00,7.10
4875.00,7.06
4874.00,7.02
4873.00,6.98
4872.00,6.94
4871.00,6.90
4870.00,6.86
4869.00,6.82
4868.00,6.77
4867.00,6.73
4866.00,6.69
4865.00,6.65
4864.00,6.61
4863.00,6.56
4862.00,6.52
4861.00,6.48
4860.00,6.44
4859.00,6.40
4858.00,6.36
4857.00,6.32
4856.00,6.28
4855.00,6.24
4854.00,6.20
4853.00,6.16
4852.00,6.13
4851.00,6.09
4850.00,6.05
4849.00,6.01
4848.00,5.97
4847.00,5.93
4846.00,5.89
4845.00,5.85
4844.00,5.81
4843.00,5.77
4842.00,5.73
4841.00,5.69
4840.00,5.65
4839.00,5.62
4838.00,5.58
4837.00,5.54
4836.00,5.51
4835.00,5.48
4834.00,5.44
4833.00,5.40
4832.00,5.37
4831.00,5.33
4830.00,5.29
4829.00,5.26
4828.00,5.22
4827.00,5.19
4826.00,5.15
4825.00,5.12
4824.00,5.09
4823.00,5.05
4822.00,5.02
4821.00,4.99
4820.00,4.96
4819.00,4.92
4818.00,4.89
4817.00,4.85
4816.00,4.82
4815.00,4.79
4814.00,4.76
4813.00,4.72
4812.00,4.69
4811.00,4.66
4810.00,4.63
4809.00,4.59
4808.00,4.56
4807.00,4.54
4806.00,4.51
4805.00,4.48
4804.00,4.44
4803.00,4.41
4802.00,4.38
4801.00,4.35
4800.00,4.32
4799.00,4.29
4798.00,4.26
4797.00,4.24
4796.00,4.21
4795.00,4.18
4794.00,4.15
4793.00,4.12
4792.00,4.09
4791.00,4.06
4790.00,4.04
4789.00,4.01
4788.00,3.98
4787.00,3.95
4786.00,3.93
4785.00,3.90
4784.00,3.87
4783.00,3.84
4782.00,3.81
4781.00,3.79
4780.00,3.76
4779.00,3.73
4778.00,3.71
4777.00,3.68
4776.00,3.65
4775.00,3.63
4774.00,3.60
4773.00,3.57
4772.00,3.54
4771.00,3.52
4770.00,3.49
4769.00,3.46
4768.00,3.44
4767.00,3.41
4766.00,3.39
4765.00,3.37
4764.00,3.34
4763.00,3.32
4762.00,3.29
4761.00,3.27
4760.00,3.24
4759.00,3.22
4758.00,3.20
4757.00,3.17
4756.00,3.15
4755.00,3.12
4754.00,3.10
4753.00,3.07
4752.00,3.05
4751.00,3.02
4750.00,3.00
4749.00,2.97
4748.00,2.95
4747.00,2.93
4746.00,2.90
4745.00,2.88
4744.00,2.86
4743.00,2.83
4742.00,2.81
4741.00,2.79
4740.00,2.77
4739.00,2.74
4738.00,2.72
4737.00,2.70
4736.00,2.68
4735.00,2.66
4734.00,2.64
4733.00,2.61
4732.00,2.59
4731.00,2.57
4730.00,2.55
4729.00,2.53
4728.00,2.51
4727.00,2.49
4726.00,2.47
4725.00,2.45
4724.00,2.43
4723.00,2.41
4722.00,2.40
4721.00,2.38
4720.00,2.36
4719.00,2.34
4718.00,2.32
4717.00,2.30
4716.00,2.28
4715.00,2.27
4714.00,2.25
4713.00,2.23
4712.00,2.21
4711.00,2.19
4710.00,2.17
4709.00,2.16
4708.00,2.14
4707.00,2.13
4706.00,2.11
4705.00,2.09
4704.00,2.08
4703.00,2.06
4702.00,2.05
4701.00,2.03
4700.00,2.02
4699.00,2.00
4698.00,1.99
4697.00,1.97
4696.00,1.96
4695.00,1.94
4694.00,1.93
4693.00,1.91
4692.00,1.89
4691.00,1.88
4690.00,1.87
4689.00,1.85
4688.00,1.84
4687.00,1.82
4686.00,1.81
4685.00,1.80
4684.00,1.78
4683.00,1.77
4682.00,1.75
4681.00,1.74
4680.00,1.72
4679.00,1.71
4678.00,1.70
4677.00,1.68
4676.00,1.67
4675.00,1.66
4674.00,1.65
4673.00,1.63
4672.00,1.62
4671.00,1.61
4670.00,1.59
4669.00,1.58
4668.00,1.57
4667.00,1.56
4666.00,1.55
4665.00,1.53
4664.00,1.52
4663.00,1.51
4662.00,1.50
4661.00,1.49
4660.00,1.48
4659.00,1.47
4658.00,1.46
4657.00,1.45
4656.00,1.44
4655.00,1.43
4654.00,1.41
4653.00,1.40
4652.00,1.39
4651.00,1.38
4650.00,1.37
4649.00,1.36
4648.00,1.35
4647.00,1.33
4646.00,1.32
4645.00,1.31
4644.00,1.30
4643.00,1.29
4642.00,1.28
4641.00,1.27
4640.00,1.26
4639.00,1.25
4638.00,1.24
4637.00,1.23
4636.00,1.22
4635.00,1.21
4634.00,1.20
4633.00,1.19
4632.00,1.18
4631.00,1.17
4630.00,1.16
4629.00,1.16
4628.00,1.15
4627.00,1.14
4626.00,1.13
4625.00,1.12
4624.00,1.11
4623.00,1.10
4622.00,1.09
4621.00,1.08
4620.00,1.07
4619.00,1.06
4618.00,1.06
4617.00,1.05
4616.00,1.04
4615.00,1.03
4614.00,1.03
4613.00,1.02
4612.00,1.01
4611.00,1.00
4610.00,0.99
4609.00,0.98
4608.00,0.98
4607.00,0.97
4606.00,0.96
4605.00,0.96
4604.00,0.95
4603.00,0.95
4602.00,0.94
4601.00,0.94
4600.00,0.93
4599.00,0.93
4598.00,0.92
4597.00,0.92
4596.00,0.91
4595.00,0.90
4594.00,0.90
4593.00,0.90
4592.00,0.89
4591.00,0.89
4590.00,0.88
4589.00,0.87
4588.00,0.87
4587.00,0.87
4586.00,0.86
4585.00,0.86
4584.00,0.86
4583.00,0.85
4582.00,0.85
4581.00,0.84
4580.00,0.84
4579.00,0.84
4578.00,0.84
4577.00,0.83
4576.00,0.83
4575.00,0.83
4574.00,0.83
4573.00,0.82
4572.00,0.82
4571.00,0.82
4570.00,0.82
4569.00,0.81
4568.00,0.81
4567.00,0.81
4566.00,0.80
4565.00,0.80
4564.00,0.80
4563.00,0.80
4562.00,0.80
4561.00,0.80
4560.00,0.79
4559.00,0.79
4558.00,0.79
4557.00,0.79
4556.00,0.79
4555.00,0.79
4554.00,0.79
4553.00,0.79
4552.00,0.79
4551.00,0.79
4550.00,0.79
4549.00,0.79
4548.00,0.79
4547.00,0.79
4546.00,0.79
4545.00,0.78
4544.00,0.78
4543.00,0.78
4542.00,0.78
4541.00,0.78
4540.00,0.78
4539.00,0.79
4538.00,0.79
4537.00,0.79
4536.00,0.79
4535.00,0.79
4534.00,0.79
4533.00,0.79
4532.00,0.79
4531.00,0.79
4530.00,0.79
4529.00,0.79
4528.00,0.80
4527.00,0.80
4526.00,0.80
4525.00,0.80
4524.00,0.81
4523.00,0.81
4522.00,0.81
4521.00,0.81
4520.00,0.81
4519.00,0.81
4518.00,0.81
4517.00,0.82
4516.00,0.82
4515.00,0.82
4514.00,0.82
4513.00,0.82
4512.00,0.83
4511.00,0.83
4510.00,0.83
4509.00,0.84
4508.00,0.84
4507.00,0.85
4506.00,0.85
4505.00,0.85
4504.00,0.85
4503.00,0.86
4502.00,0.86
4501.00,0.86
4500.00,0.87
4499.00,0.87
4498.00,0.88
4497.00,0.89
4496.00,0.89
4495.00,0.90
4494.00,0.90
4493.00,0.90
4492.00,0.91
4491.00,0.91
4490.00,0.92
4489.00,0.92
4488.00,0.93
4487.00,0.93
4486.00,0.94
4485.00,0.95
4484.00,0.95
4483.00,0.96
4482.00,0.97
4481.00,0.97
4480.00,0.98
4479.00,0.99
4478.00,0.99
4477.00,1.00
4476.00,1.01
4475.00,1.02
4474.00,1.03
4473.00,1.03
4472.00,1.04
4471.00,1.05
4470.00,1.06
4469.00,1.07
4468.00,1.08
4467.00,1.09
4466.00,1.10
4465.00,1.11
4464.00,1.12
4463.00,1.13
4462.00,1.13
4461.00,1.14
4460.00,1.15
4459.00,1.17
4458.00,1.18
4457.00,1.19
4456.00,1.20
4455.00,1.21
4454.00,1.22
4453.00,1.24
4452.00,1.25
4451.00,1.26
4450.00,1.27
4449.00,1.29
4448.00,1.30
4447.00,1.32
4446.00,1.33
4445.00,1.34
4444.00,1.36
4443.00,1.37
4442.00,1.38
4441.00,1.40
4440.00,1.42
4439.00,1.43
4438.00,1.45
4437.00,1.47
4436.00,1.49
4435.00,1.50
4434.00,1.52
4433.00,1.54
4432.00,1.56
4431.00,1.58
4430.00,1.60
4429.00,1.62
4428.00,1.64
4427.00,1.66
4426.00,1.67
4425.00,1.70
4424.00,1.72
4423.00,1.74
4422.00,1.76
4421.00,1.78
4420.00,1.80
4419.00,1.83
4418.00,1.85
4417.00,1.87
4416.00,1.89
4415.00,1.92
4414.00,1.94
4413.00,1.97
4412.00,2.00
4411.00,2.02
4410.00,2.05
4409.00,2.07
4408.00,2.10
4407.00,2.13
4406.00,2.15
4405.00,2.18
4404.00,2.21
4403.00,2.24
4402.00,2.27
4401.00,2.30
4400.00,2.33
4399.00,2.36
4398.00,2.38
4397.00,2.41
4396.00,2.44
4395.00,2.47
4394.00,2.49
4393.00,2.52
4392.00,2.56
4391.00,2.59
4390.00,2.62
4389.00,2.66
4388.00,2.69
4387.00,2.72
4386.00,2.75
4385.00,2.78
4384.00,2.82
4383.00,2.85
4382.00,2.88
4381.00,2.92
4380.00,2.95
4379.00,2.98
4378.00,3.02
4377.00,3.05
4376.00,3.09
4375.00,3.12
4374.00,3.16
4373.00,3.20
4372.00,3.23
4371.00,3.27
4370.00,3.31
4369.00,3.34
4368.00,3.38
4367.00,3.42
4366.00,3.46
4365.00,3.50
4364.00,3.54
4363.00,3.58
4362.00,3.63
4361.00,3.67
4360.00,3.71
4359.00,3.76
4358.00,3.80
4357.00,3.85
4356.00,3.90
4355.00,3.94
4354.00,3.99
4353.00,4.04
4352.00,4.09
4351.00,4.14
4350.00,4.19
4349.00,4.24
4348.00,4.29
4347.00,4.34
4346.00,4.39
4345.00,4.44
4344.00,4.49
4343.00,4.54
4342.00,4.59
4341.00,4.64
4340.00,4.69
4339.00,4.75
4338.00,4.80
4337.00,4.85
4336.00,4.91
4335.00,4.96
4334.00,5.02
4333.00,5.07
4332.00,5.12
4331.00,5.17
4330.00,5.23
4329.00,5.28
4328.00,5.32
4327.00,5.37
4326.00,5.41
4325.00,5.46
4324.00,5.50
4323.00,5.54
4322.00,5.58
4321.00,5.62
4320.00,5.65
4319.00,5.69
4318.00,5.72
4317.00,5.75
4316.00,5.78
4315.00,5.80
4314.00,5.83
4313.00,5.85
4312.00,5.87
4311.00,5.89
4310.00,5.90
4309.00,5.91
4308.00,5.93
4307.00,5.94
4306.00,5.94
4305.00,5.95
4304.00,5.95
4303.00,5.95
4302.00,5.95
4301.00,5.95
4300.00,5.94
4299.00,5.93
4298.00,5.92
4297.00,5.91
4296.00,5.90
4295.00,5.88
4294.00,5.86
4293.00,5.84
4292.00,5.82
4291.00,5.80
4290.00,5.77
4289.00,5.75
4288.00,5.72
4287.00,5.70
4286.00,5.67
4285.00,5.64
4284.00,5.61
4283.00,5.58
4282.00,5.55
4281.00,5.52
4280.00,5.49
4279.00,5.47
4278.00,5.44
4277.00,5.41
4276.00,5.38
4275.00,5.35
4274.00,5.32
4273.00,5.29
4272.00,5.26
4271.00,5.23
4270.00,5.20
4269.00,5.17
4268.00,5.14
4267.00,5.11
4266.00,5.07
4265.00,5.04
4264.00,5.01
4263.00,4.98
4262.00,4.95
4261.00,4.92
4260.00,4.89
4259.00,4.86
4258.00,4.83
4257.00,4.80
4256.00,4.77
4255.00,4.74
4254.00,4.70
4253.00,4.67
4252.00,4.64
4251.00,4.61
4250.00,4.58
4249.00,4.55
4248.00,4.52
4247.00,4.49
4246.00,4.45
4245.00,4.42
4244.00,4.39
4243.00,4.36
4242.00,4.32
4241.00,4.29
4240.00,4.26
4239.00,4.23
4238.00,4.20
4237.00,4.17
4236.00,4.13
4235.00,4.10
4234.00,4.07
4233.00,4.04
4232.00,4.01
4231.00,3.98
4230.00,3.94
4229.00,3.91
4228.00,3.88
4227.00,3.85
4226.00,3.82
4225.00,3.78
4224.00,3.75
4223.00,3.72
4222.00,3.70
4221.00,3.67
4220.00,3.64
4219.00,3.61
4218.00,3.58
4217.00,3.55
4216.00,3.53
4215.00,3.50
4214.00,3.47
4213.00,3.45
4212.00,3.42
4211.00,3.39
4210.00,3.37
4209.00,3.34
4208.00,3.32
4207.00,3.30
4206.00,3.27
4205.00,3.25
4204.00,3.22
4203.00,3.20
4202.00,3.17
4201.00,3.14
4200.00,3.12
4199.00,3.09
4198.00,3.07
4197.00,3.05
4196.00,3.02
4195.00,3.00
4194.00,2.97
4193.00,2.95
4192.00,2.92
4191.00,2.90
4190.00,2.88
4189.00,2.86
4188.00,2.83
4187.00,2.81
4186.00,2.78
4185.00,2.75
4184.00,2.73
4183.00,2.71
4182.00,2.68
4181.00,2.66
4180.00,2.64
4179.00,2.62
4178.00,2.60
4177.00,2.57
4176.00,2.55
4175.00,2.53
4174.00,2.51
4173.00,2.48
4172.00,2.46
4171.00,2.44
4170.00,2.42
4169.00,2.40
4168.00,2.38
4167.00,2.36
4166.00,2.34
4165.00,2.31
4164.00,2.29
4163.00,2.27
4162.00,2.25
4161.00,2.23
4160.00,2.21
4159.00,2.19
4158.00,2.17
4157.00,2.15
4156.00,2.13
4155.00,2.11
4154.00,2.09
4153.00,2.07
4152.00,2.05
4151.00,2.04
4150.00,2.02
4149.00,2.00
4148.00,1.98
4147.00,1.96
4146.00,1.94
4145.00,1.93
4144.00,1.91
4143.00,1.89
4142.00,1.87
4141.00,1.86
4140.00,1.84
4139.00,1.82
4138.00,1.80
4137.00,1.78
4136.00,1.77
4135.00,1.75
4134.00,1.74
4133.00,1.72
4132.00,1.71
4131.00,1.69
4130.00,1.67
4129.00,1.66
4128.00,1.64
4127.00,1.63
4126.00,1.61
4125.00,1.60
4124.00,1.58
4123.00,1.57
4122.00,1.56
4121.00,1.54
4120.00,1.53
4119.00,1.51
4118.00,1.50
4117.00,1.49
4116.00,1.48
4115.00,1.46
4114.00,1.45
4113.00,1.44
4112.00,1.43
4111.00,1.41
4110.00,1.40
4109.00,1.39
4108.00,1.38
4107.00,1.36
4106.00,1.35
4105.00,1.34
4104.00,1.32
4103.00,1.31
4102.00,1.30
4101.00,1.29
4100.00,1.27
4099.00,1.26
4098.00,1.25
4097.00,1.24
4096.00,1.23
4095.00,1.22
4094.00,1.21
4093.00,1.20
4092.00,1.18
4091.00,1.17
4090.00,1.16
4089.00,1.15
4088.00,1.14
4087.00,1.13
4086.00,1.12
4085.00,1.11
4084.00,1.10
4083.00,1.09
4082.00,1.08
4081.00,1.07
4080.00,1.05
4079.00,1.04
4078.00,1.03
4077.00,1.02
4076.00,1.01
4075.00,1.00
4074.00,0.99
4073.00,0.98
4072.00,0.97
4071.00,0.96
4070.00,0.95
4069.00,0.94
4068.00,0.93
4067.00,0.92
4066.00,0.91
4065.00,0.91
4064.00,0.90
4063.00,0.89
4062.00,0.88
4061.00,0.87
4060.00,0.86
4059.00,0.85
4058.00,0.84
4057.00,0.83
4056.00,0.82
4055.00,0.81
4054.00,0.80
4053.00,0.79
4052.00,0.79
4051.00,0.78
4050.00,0.77
4049.00,0.76
4048.00,0.75
4047.00,0.74
4046.00,0.74
4045.00,0.73
4044.00,0.72
4043.00,0.71
4042.00,0.71
4041.00,0.70
4040.00,0.69
4039.00,0.69
4038.00,0.68
4037.00,0.67
4036.00,0.67
4035.00,0.66
4034.00,0.65
4033.00,0.65
4032.00,0.64
4031.00,0.64
4030.00,0.63
4029.00,0.63
4028.00,0.62
4027.00,0.61
4026.00,0.61
4025.00,0.60
4024.00,0.59
4023.00,0.59
4022.00,0.58
4021.00,0.58
4020.00,0.57
4019.00,0.57
4018.00,0.57
4017.00,0.56
4016.00,0.56
4015.00,0.55
4014.00,0.55
4013.00,0.55
4012.00,0.54
4011.00,0.54
4010.00,0.54
4009.00,0.53
4008.00,0.53
4007.00,0.52
4006.00,0.52
4005.00,0.52
4004.00,0.52
4003.00,0.51
4002.00,0.51
4001.00,0.51
4000.00,0.50
3999.00,0.50
3998.00,0.50
3997.00,0.49
3996.00,0.49
3995.00,0.49
3994.00,0.49
3993.00,0.49
3992.00,0.49
3991.00,0.49
3990.00,0.48
3989.00,0.48
3988.00,0.47
3987.00,0.47
3986.00,0.47
3985.00,0.46
3984.00,0.46
3983.00,0.46
3982.00,0.46
3981.00,0.46
3980.00,0.46
3979.00,0.46
3978.00,0.46
3977.00,0.46
3976.00,0.46
3975.00,0.45
3974.00,0.45
3973.00,0.45
3972.00,0.45
3971.00,0.45
3970.00,0.45
3969.00,0.45
3968.00,0.45
3967.00,0.44
3966.00,0.44
3965.00,0.44
3964.00,0.44
3963.00,0.44
3962.00,0.44
3961.00,0.44
3960.00,0.44
3959.00,0.44
3958.00,0.44
3957.00,0.44
3956.00,0.44
3955.00,0.44
3954.00,0.44
3953.00,0.44
3952.00,0.44
3951.00,0.44
3950.00,0.43
3949.00,0.43
3948.00,0.43
3947.00,0.43
3946.00,0.43
3945.00,0.43
3944.00,0.43
3943.00,0.43
3942.00,0.43
3941.00,0.43
3940.00,0.43
3939.00,0.43
3938.00,0.43
3937.00,0.43
3936.00,0.43
3935.00,0.43
3934.00,0.43
3933.00,0.43
3932.00,0.43
3931.00,0.43
3930.00,0.43
3929.00,0.43
3928.00,0.43
3927.00,0.43
3926.00,0.44
3925.00,0.44
3924.00,0.44
3923.00,0.44
3922.00,0.44
3921.00,0.44
3920.00,0.44
3919.00,0.45
3918.00,0.45
3917.00,0.45
3916.00,0.45
3915.00,0.45
3914.00,0.45
3913.00,0.45
3912.00,0.45
3911.00,0.45
3910.00,0.45
3909.00,0.46
3908.00,0.46
3907.00,0.46
3906.00,0.46
3905.00,0.46
3904.00,0.46
3903.00,0.47
3902.00,0.47
3901.00,0.47
3900.00,0.47
3899.00,0.47
3898.00,0.47
3897.00,0.48
3896.00,0.48
3895.00,0.48
3894.00,0.48
3893.00,0.49
3892.00,0.49
3891.00,0.49
3890.00,0.49
3889.00,0.49
3888.00,0.49
3887.00,0.50
3886.00,0.50
3885.00,0.51
3884.00,0.51
3883.00,0.51
3882.00,0.52
3881.00,0.52
3880.00,0.52
3879.00,0.52
3878.00,0.52
3877.00,0.53
3876.00,0.53
3875.00,0.53
3874.00,0.54
3873.00,0.54
3872.00,0.54
3871.00,0.55
3870.00,0.55
3869.00,0.56
3868.00,0.56
3867.00,0.56
3866.00,0.56
3865.00,0.57
3864.00,0.57
3863.00,0.58
3862.00,0.58
3861.00,0.59
3860.00,0.59
3859.00,0.60
3858.00,0.60
3857.00,0.61
3856.00,0.62
3855.00,0.62
3854.00,0.63
3853.00,0.63
3852.00,0.64
3851.00,0.64
3850.00,0.64
3849.00,0.65
3848.00,0.65
3847.00,0.66
3846.00,0.67
3845.00,0.68
3844.00,0.69
3843.00,0.70
3842.00,0.71
3841.00,0.71
3840.00,0.72
3839.00,0.73
3838.00,0.74
3837.00,0.74
3836.00,0.75
3835.00,0.76
3834.00,0.77
3833.00,0.77
3832.00,0.78
3831.00,0.79
3830.00,0.80
3829.00,0.81
3828.00,0.82
3827.00,0.83
3826.00,0.85
3825.00,0.86
3824.00,0.87
3823.00,0.89
3822.00,0.90
3821.00,0.91
3820.00,0.92
3819.00,0.93
3818.00,0.94
3817.00,0.95
3816.00,0.96
3815.00,0.98
3814.00,0.99
3813.00,1.00
3812.00,1.02
3811.00,1.03
3810.00,1.05
3809.00,1.07
3808.00,1.09
3807.00,1.10
3806.00,1.12
3805.00,1.14
3804.00,1.15
3803.00,1.17
3802.00,1.19
3801.00,1.21
3800.00,1.22
3799.00,1.24
3798.00,1.25
3797.00,1.27
3796.00,1.29
3795.00,1.31
3794.00,1.33
3793.00,1.35
3792.00,1.37
3791.00,1.40
3790.00,1.42
3789.00,1.44
3788.00,1.46
3787.00,1.48
3786.00,1.51
3785.00,1.53
3784.00,1.56
3783.00,1.58
3782.00,1.61
3781.00,1.63
3780.00,1.66
3779.00,1.68
3778.00,1.71
3777.00,1.73
3776.00,1.76
3775.00,1.79
3774.00,1.81
3773.00,1.84
3772.00,1.87
3771.00,1.90
3770.00,1.93
3769.00,1.96
3768.00,1.99
3767.00,2.02
3766.00,2.05
3765.00,2.08
3764.00,2.11
3763.00,2.14
3762.00,2.17
3761.00,2.21
3760.00,2.24
3759.00,2.28
3758.00,2.31
3757.00,2.34
3756.00,2.38
3755.00,2.42
3754.00,2.45
3753.00,2.49
3752.00,2.53
3751.00,2.57
3750.00,2.61
3749.00,2.65
3748.00,2.69
3747.00,2.73
3746.00,2.77
3745.00,2.81
3744.00,2.85
3743.00,2.89
3742.00,2.93
3741.00,2.97
3740.00,3.02
3739.00,3.06
3738.00,3.10
3737.00,3.15
3736.00,3.19
3735.00,3.23
3734.00,3.28
3733.00,3.32
3732.00,3.37
3731.00,3.41
3730.00,3.45
3729.00,3.50
3728.00,3.54
3727.00,3.59
3726.00,3.63
3725.00,3.67
3724.00,3.72
3723.00,3.76
3722.00,3.80
3721.00,3.84
3720.00,3.88
3719.00,3.92
3718.00,3.96
3717.00,3.99
3716.00,4.02
3715.00,4.05
3714.00,4.08
3713.00,4.11
3712.00,4.14
3711.00,4.17
3710.00,4.20
3709.00,4.22
3708.00,4.25
3707.00,4.27
3706.00,4.28
3705.00,4.29
3704.00,4.30
3703.00,4.30
3702.00,4.31
3701.00,4.31
3700.00,4.31
3699.00,4.31
3698.00,4.30
3697.00,4.29
3696.00,4.28
3695.00,4.26
3694.00,4.24
3693.00,4.22
3692.00,4.20
3691.00,4.17
3690.00,4.15
3689.00,4.12
3688.00,4.09
3687.00,4.07
3686.00,4.05
3685.00,4.03
3684.00,4.00
3683.00,3.97
3682.00,3.94
3681.00,3.90
3680.00,3.87
3679.00,3.83
3678.00,3.79
3677.00,3.75
3676.00,3.71
3675.00,3.68
3674.00,3.65
3673.00,3.62
3672.00,3.59
3671.00,3.55
3670.00,3.51
3669.00,3.48
3668.00,3.45
3667.00,3.42
3666.00,3.39
3665.00,3.36
3664.00,3.32
3663.00,3.28
3662.00,3.25
3661.00,3.21
3660.00,3.17
3659.00,3.14
3658.00,3.10
3657.00,3.07
3656.00,3.04
3655.00,3.01
3654.00,2.98
3653.00,2.95
3652.00,2.92
3651.00,2.88
3650.00,2.85
3649.00,2.82
3648.00,2.79
3647.00,2.77
3646.00,2.75
3645.00,2.73
3644.00,2.70
3643.00,2.67
3642.00,2.64
3641.00,2.62
3640.00,2.59
3639.00,2.56
3638.00,2.54
3637.00,2.51
3636.00,2.49
3635.00,2.46
3634.00,2.44
3633.00,2.41
3632.00,2.39
3631.00,2.36
3630.00,2.33
3629.00,2.31
3628.00,2.29
3627.00,2.27
3626.00,2.25
3625.00,2.23
3624.00,2.21
3623.00,2.19
3622.00,2.17
3621.00,2.15
3620.00,2.13
3619.00,2.11
3618.00,2.09
3617.00,2.08
3616.00,2.06
3615.00,2.04
3614.00,2.02
3613.00,2.00
3612.00,1.98
3611.00,1.96
3610.00,1.95
3609.00,1.93
3608.00,1.91
3607.00,1.90
3606.00,1.88
3605.00,1.87
3604.00,1.85
3603.00,1.84
3602.00,1.82
3601.00,1.80
3600.00,1.78
3599.00,1.77
3598.00,1.75
3597.00,1.74
3596.00,1.72
3595.00,1.71
3594.00,1.69
3593.00,1.68
3592.00,1.66
3591.00,1.65
3590.00,1.63
3589.00,1.61
3588.00,1.60
3587.00,1.58
3586.00,1.57
3585.00,1.56
3584.00,1.54
3583.00,1.53
3582.00,1.51
3581.00,1.50
3580.00,1.48
3579.00,1.47
3578.00,1.45
3577.00,1.44
3576.00,1.42
3575.00,1.41
3574.00,1.40
3573.00,1.38
3572.00,1.37
3571.00,1.35
3570.00,1.34
3569.00,1.33
3568.00,1.31
3567.00,1.30
3566.00,1.28
3565.00,1.27
3564.00,1.26
3563.00,1.25
3562.00,1.24
3561.00,1.22
3560.00,1.21
3559.00,1.20
3558.00,1.18
3557.00,1.17
3556.00,1.16
3555.00,1.15
3554.00,1.13
3553.00,1.12
3552.00,1.11
3551.00,1.10
3550.00,1.09
3549.00,1.08
3548.00,1.06
3547.00,1.05
3546.00,1.04
3545.00,1.03
3544.00,1.02
3543.00,1.01
3542.00,1.00
3541.00,0.99
3540.00,0.98
3539.00,0.97
3538.00,0.96
3537.00,0.95
3536.00,0.94
3535.00,0.93
3534.00,0.92
3533.00,0.91
3532.00,0.90
3531.00,0.89
3530.00,0.88
3529.00,0.87
3528.00,0.86
3527.00,0.85
3526.00,0.84
3525.00,0.83
3524.00,0.82
3523.00,0.82
3522.00,0.81
3521.00,0.80
3520.00,0.79
3519.00,0.78
3518.00,0.77
3517.00,0.77
3516.00,0.76
3515.00,0.75
3514.00,0.74
3513.00,0.73
3512.00,0.72
3511.00,0.71
3510.00,0.71
3509.00,0.70
3508.00,0.69
3507.00,0.69
3506.00,0.68
3505.00,0.67
3504.00,0.66
3503.00,0.66
3502.00,0.65
3501.00,0.64
3500.00,0.64
3499.00,0.63
3498.00,0.62
3497.00,0.62
3496.00,0.61
3495.00,0.60
3494.00,0.59
3493.00,0.59
3492.00,0.58
3491.00,0.57
3490.00,0.57
3489.00,0.56
3488.00,0.55
3487.00,0.55
3486.00,0.54
3485.00,0.54
3484.00,0.53
3483.00,0.52
3482.00,0.52
3481.00,0.51
3480.00,0.50
3479.00,0.50
3478.00,0.49
3477.00,0.49
3476.00,0.48
3475.00,0.48
3474.00,0.47
3473.00,0.46
3472.00,0.46
3471.00,0.45
3470.00,0.45
3469.00,0.44
3468.00,0.44
3467.00,0.43
3466.00,0.43
3465.00,0.42
3464.00,0.42
3463.00,0.41
3462.00,0.41
3461.00,0.40
3460.00,0.40
3459.00,0.39
3458.00,0.39
3457.00,0.38
3456.00,0.38
3455.00,0.38
3454.00,0.37
3453.00,0.37
3452.00,0.36
3451.00,0.36
3450.00,0.36
3449.00,0.35
3448.00,0.35
3447.00,0.35
3446.00,0.35
3445.00,0.34
3444.00,0.34
3443.00,0.33
3442.00,0.33
3441.00,0.33
3440.00,0.33
3439.00,0.32
3438.00,0.32
3437.00,0.32
3436.00,0.32
3435.00,0.31
3434.00,0.31
3433.00,0.31
3432.00,0.30
3431.00,0.30
3430.00,0.30
3429.00,0.30
3428.00,0.29
3427.00,0.29
3426.00,0.29
3425.00,0.29
3424.00,0.29
3423.00,0.28
3422.00,0.28
3421.00,0.28
3420.00,0.28
3419.00,0.28
3418.00,0.28
3417.00,0.28
3416.00,0.27
3415.00,0.27
3414.00,0.27
3413.00,0.27
3412.00,0.27
3411.00,0.26
3410.00,0.26
3409.00,0.26
3408.00,0.26
3407.00,0.26
3406.00,0.26
3405.00,0.26
3404.00,0.26
3403.00,0.26
3402.00,0.26
3401.00,0.25
3400.00,0.25
3399.00,0.25
3398.00,0.25
3397.00,0.25
3396.00,0.25
3395.00,0.25
3394.00,0.25
3393.00,0.25
3392.00,0.25
3391.00,0.25
3390.00,0.25
3389.00,0.25
3388.00,0.24
3387.00,0.24
3386.00,0.24
3385.00,0.24
3384.00,0.24
3383.00,0.25
3382.00,0.25
3381.00,0.25
3380.00,0.24
3379.00,0.24
3378.00,0.24
3377.00,0.24
3376.00,0.24
3375.00,0.24
3374.00,0.24
3373.00,0.24
3372.00,0.24
3371.00,0.24
3370.00,0.24
3369.00,0.24
3368.00,0.24
3367.00,0.23
3366.00,0.23
3365.00,0.23
3364.00,0.23
3363.00,0.23
3362.00,0.23
3361.00,0.23
3360.00,0.23
3359.00,0.23
3358.00,0.23
3357.00,0.23
3356.00,0.23
3355.00,0.23
3354.00,0.23
3353.00,0.23
3352.00,0.23
3351.00,0.23
3350.00,0.23
3349.00,0.23
3348.00,0.23
3347.00,0.23
3346.00,0.23
3345.00,0.23
3344.00,0.23
3343.00,0.23
3342.00,0.23
3341.00,0.23
3340.00,0.23
3339.00,0.23
3338.00,0.23
3337.00,0.23
3336.00,0.23
3335.00,0.23
3334.00,0.23
3333.00,0.23
3332.00,0.23
3331.00,0.23
3330.00,0.23
3329.00,0.23
3328.00,0.23
3327.00,0.23
3326.00,0.23
3325.00,0.24
3324.00,0.24
3323.00,0.24
3322.00,0.24
3321.00,0.23
3320.00,0.23
3319.00,0.23
3318.00,0.24
3317.00,0.24
3316.00,0.24
3315.00,0.24
3314.00,0.24
3313.00,0.24
3312.00,0.24
3311.00,0.24
3310.00,0.24
3309.00,0.24
3308.00,0.24
3307.00,0.24
3306.00,0.24
3305.00,0.24
3304.00,0.24
3303.00,0.24
3302.00,0.25
3301.00,0.25
3300.00,0.25
3299.00,0.25
3298.00,0.25
3297.00,0.25
3296.00,0.25
3295.00,0.25
3294.00,0.25
3293.00,0.25
3292.00,0.25
3291.00,0.25
3290.00,0.26
3289.00,0.26
3288.00,0.26
3287.00,0.26
3286.00,0.26
3285.00,0.26
3284.00,0.26
3283.00,0.26
3282.00,0.27
3281.00,0.27
3280.00,0.27
3279.00,0.27
3278.00,0.27
3277.00,0.27
3276.00,0.27
3275.00,0.27
3274.00,0.28
3273.00,0.28
3272.00,0.28
3271.00,0.28
3270.00,0.28
3269.00,0.29
3268.00,0.29
3267.00,0.29
3266.00,0.29
3265.00,0.29
3264.00,0.29
3263.00,0.30
3262.00,0.30
3261.00,0.30
3260.00,0.30
3259.00,0.30
3258.00,0.31
3257.00,0.31
3256.00,0.31
3255.00,0.31
3254.00,0.31
3253.00,0.32
3252.00,0.32
3251.00,0.32
3250.00,0.32
3249.00,0.33
3248.00,0.33
3247.00,0.33
3246.00,0.33
3245.00,0.34
3244.00,0.34
3243.00,0.34
3242.00,0.35
3241.00,0.35
3240.00,0.35
3239.00,0.36
3238.00,0.36
3237.00,0.36
3236.00,0.37
3235.00,0.37
3234.00,0.38
3233.00,0.38
3232.00,0.38
3231.00,0.38
3230.00,0.39
3229.00,0.39
3228.00,0.40
3227.00,0.40
3226.00,0.41
3225.00,0.41
3224.00,0.42
3223.00,0.42
3222.00,0.43
3221.00,0.43
3220.00,0.44
3219.00,0.44
3218.00,0.45
3217.00,0.46
3216.00,0.46
3215.00,0.47
3214.00,0.47
3213.00,0.48
3212.00,0.49
3211.00,0.49
3210.00,0.50
3209.00,0.51
3208.00,0.51
3207.00,0.52
3206.00,0.53
3205.00,0.54
3204.00,0.55
3203.00,0.55
3202.00,0.56
3201.00,0.57
3200.00,0.58
3199.00,0.59
3198.00,0.60
3197.00,0.61
3196.00,0.62
3195.00,0.63
3194.00,0.64
3193.00,0.65
3192.00,0.66
3191.00,0.67
3190.00,0.68
3189.00,0.70
3188.00,0.71
3187.00,0.72
3186.00,0.73
3185.00,0.74
3184.00,0.76
3183.00,0.77
3182.00,0.78
3181.00,0.80
3180.00,0.81
3179.00,0.83
3178.00,0.84
3177.00,0.86
3176.00,0.87
3175.00,0.89
3174.00,0.90
3173.00,0.92
3172.00,0.94
3171.00,0.95
3170.00,0.97
3169.00,0.99
3168.00,1.01
3167.00,1.03
3166.00,1.05
3165.00,1.07
3164.00,1.09
3163.00,1.11
3162.00,1.13
3161.00,1.15
3160.00,1.17
3159.00,1.19
3158.00,1.21
3157.00,1.24
3156.00,1.26
3155.00,1.28
3154.00,1.31
3153.00,1.33
3152.00,1.35
3151.00,1.38
3150.00,1.40
3149.00,1.43
3148.00,1.45
3147.00,1.48
3146.00,1.51
3145.00,1.53
3144.00,1.56
3143.00,1.59
3142.00,1.61
3141.00,1.64
3140.00,1.67
3139.00,1.70
3138.00,1.73
3137.00,1.76
3136.00,1.79
3135.00,1.82
3134.00,1.85
3133.00,1.88
3132.00,1.91
3131.00,1.94
3130.00,1.97
3129.00,2.01
3128.00,2.04
3127.00,2.07
3126.00,2.10
3125.00,2.13
3124.00,2.16
3123.00,2.19
3122.00,2.22
3121.00,2.25
3120.00,2.28
3119.00,2.31
3118.00,2.34
3117.00,2.37
3116.00,2.40
3115.00,2.43
3114.00,2.45
3113.00,2.48
3112.00,2.50
3111.00,2.53
3110.00,2.55
3109.00,2.57
3108.00,2.59
3107.00,2.61
3106.00,2.62
3105.00,2.63
3104.00,2.65
3103.00,2.66
3102.00,2.67
3101.00,2.68
3100.00,2.69
3099.00,2.69
3098.00,2.69
3097.00,2.69
3096.00,2.69
3095.00,2.69
3094.00,2.68
3093.00,2.68
3092.00,2.67
3091.00,2.66
3090.00,2.65
3089.00,2.64
3088.00,2.62
3087.00,2.61
3086.00,2.59
3085.00,2.58
3084.00,2.56
3083.00,2.54
3082.00,2.52
3081.00,2.50
3080.00,2.48
3079.00,2.45
3078.00,2.43
3077.00,2.41
3076.00,2.38
3075.00,2.36
3074.00,2.33
3073.00,2.31
3072.00,2.28
3071.00,2.26
3070.00,2.23
3069.00,2.20
3068.00,2.18
3067.00,2.15
3066.00,2.13
3065.00,2.10
3064.00,2.08
3063.00,2.05
3062.00,2.03
3061.00,2.00
3060.00,1.98
3059.00,1.95
3058.00,1.93
3057.00,1.90
3056.00,1.88
3055.00,1.86
3054.00,1.83
3053.00,1.81
3052.00,1.79
3051.00,1.77
3050.00,1.74
3049.00,1.72
3048.00,1.70
3047.00,1.68
3046.00,1.66
3045.00,1.64
3044.00,1.62
3043.00,1.60
3042.00,1.58
3041.00,1.55
3040.00,1.53
3039.00,1.51
3038.00,1.49
3037.00,1.46
3036.00,1.44
3035.00,1.42
3034.00,1.39
3033.00,1.37
3032.00,1.35
3031.00,1.32
3030.00,1.30
3029.00,1.28
3028.00,1.26
3027.00,1.23
3026.00,1.21
3025.00,1.19
3024.00,1.17
3023.00,1.15
3022.00,1.13
3021.00,1.11
3020.00,1.09
3019.00,1.07
3018.00,1.05
3017.00,1.03
3016.00,1.01
3015.00,0.99
3014.00,0.97
3013.00,0.95
3012.00,0.93
3011.00,0.91
3010.00,0.89
3009.00,0.87
3008.00,0.84
3007.00,0.82
3006.00,0.80
3005.00,0.78
3004.00,0.76
3003.00,0.74
3002.00,0.72
3001.00,0.70
3000.00,0.68
2999.00,0.66
2998.00,0.64
2997.00,0.62
2996.00,0.60
2995.00,0.58
2994.00,0.56
2993.00,0.54
2992.00,0.52
2991.00,0.50
2990.00,0.48
2989.00,0.46
2988.00,0.44
2987.00,0.42
2986.00,0.40
2985.00,0.38
2984.00,0.37
2983.00,0.35
2982.00,0.34
2981.00,0.32
2980.00,0.30
2979.00,0.29
2978.00,0.27
2977.00,0.26
2976.00,0.25
2975.00,0.23
2974.00,0.22
2973.00,0.21
2972.00,0.21
2971.00,0.20
2970.00,0.19
2969.00,0.18
2968.00,0.17
2967.00,0.16
2966.00,0.15
2965.00,0.15
2964.00,0.14
2963.00,0.13
2962.00,0.13
2961.00,0.12
2960.00,0.12
2959.00,0.12
2958.00,0.11
2957.00,0.11
2956.00,0.10
2955.00,0.10
2954.00,0.10
2953.00,0.10
2952.00,0.10
2951.00,0.09
2950.00,0.09
2949.00,0.09
2948.00,0.08
2947.00,0.08
2946.00,0.08
2945.00,0.08
2944.00,0.07
2943.00,0.07
2942.00,0.07
2941.00,0.07
2940.00,0.07
2939.00,0.07
2938.00,0.07
2937.00,0.07
2936.00,0.07
2935.00,0.08
2934.00,0.08
2933.00,0.08
2932.00,0.09
2931.00,0.09
2930.00,0.10
2929.00,0.10
2928.00,0.11
2927.00,0.12
2926.00,0.13
2925.00,0.15
2924.00,0.16
2923.00,0.17
2922.00,0.18
2921.00,0.19
2920.00,0.20
2919.00,0.22
2918.00,0.23
2917.00,0.24
2916.00,0.26
2915.00,0.27
2914.00,0.28
2913.00,0.29
2912.00,0.30
2911.00,0.30
2910.00,0.30
2909.00,0.31
2908.00,0.31
2907.00,0.31
2906.00,0.31
2905.00,0.31
2904.00,0.31
2903.00,0.31
2902.00,0.31
2901.00,0.31
2900.00,0.31
2899.00,0.31
2898.00,0.31
2897.00,0.31
2896.00,0.31
2895.00,0.30
2894.00,0.30
2893.00,0.30
2892.00,0.30
2891.00,0.30
2890.00,0.29
2889.00,0.29
2888.00,0.28
2887.00,0.27
2886.00,0.27
2885.00,0.26
2884.00,0.25
2883.00,0.25
2882.00,0.24
2881.00,0.23
2880.00,0.22
2879.00,0.22
2878.00,0.21
2877.00,0.20
2876.00,0.20
2875.00,0.19
2874.00,0.18
2873.00,0.17
2872.00,0.17
2871.00,0.16
2870.00,0.16
2869.00,0.15
2868.00,0.15
2867.00,0.14
2866.00,0.14
2865.00,0.14
2864.00,0.14
2863.00,0.14
2862.00,0.14
2861.00,0.15
2860.00,0.15
2859.00,0.16
2858.00,0.18
2857.00,0.19
2856.00,0.20
2855.00,0.22
2854.00,0.24
2853.00,0.25
2852.00,0.27
2851.00,0.28
2850.00,0.29
2849.00,0.30
2848.00,0.31
2847.00,0.32
2846.00,0.32
2845.00,0.33
2844.00,0.33
2843.00,0.33
2842.00,0.32
2841.00,0.32
2840.00,0.32
2839.00,0.31
2838.00,0.31
2837.00,0.30
2836.00,0.30
2835.00,0.29
2834.00,0.28
2833.00,0.28
2832.00,0.27
2831.00,0.26
2830.00,0.26
2829.00,0.25
2828.00,0.25
2827.00,0.25
2826.00,0.24
2825.00,0.24
2824.00,0.24
2823.00,0.23
2822.00,0.23
2821.00,0.23
2820.00,0.22
2819.00,0.22
2818.00,0.22
2817.00,0.22
2816.00,0.21
2815.00,0.21
2814.00,0.21
2813.00,0.21
2812.00,0.20
2811.00,0.20
2810.00,0.20
2809.00,0.19
2808.00,0.19
2807.00,0.19
2806.00,0.19
2805.00,0.18
2804.00,0.18
2803.00,0.18
2802.00,0.18
2801.00,0.18
2800.00,0.18
2799.00,0.17
2798.00,0.17
2797.00,0.17
2796.00,0.16
2795.00,0.16
2794.00,0.16
2793.00,0.16
2792.00,0.16
2791.00,0.16
2790.00,0.16
2789.00,0.15
2788.00,0.15
2787.00,0.15
2786.00,0.15
2785.00,0.15
2784.00,0.15
2783.00,0.15
2782.00,0.15
2781.00,0.15
2780.00,0.15
2779.00,0.14
2778.00,0.14
2777.00,0.14
2776.00,0.14
2775.00,0.14
2774.00,0.14
2773.00,0.14
2772.00,0.14
2771.00,0.14
2770.00,0.13
2769.00,0.13
2768.00,0.13
2767.00,0.13
2766.00,0.13
2765.00,0.13
2764.00,0.13
2763.00,0.13
2762.00,0.13
2761.00,0.13
2760.00,0.13
2759.00,0.13
2758.00,0.12
2757.00,0.12
2756.00,0.12
2755.00,0.12
2754.00,0.12
2753.00,0.12
2752.00,0.12
2751.00,0.12
2750.00,0.13
2749.00,0.13
2748.00,0.12
2747.00,0.12
2746.00,0.12
2745.00,0.12
2744.00,0.12
2743.00,0.12
2742.00,0.12
2741.00,0.12
2740.00,0.12
2739.00,0.12
2738.00,0.12
2737.00,0.12
2736.00,0.12
2735.00,0.12
2734.00,0.12
2733.00,0.12
2732.00,0.12
2731.00,0.12
2730.00,0.12
2729.00,0.12
2728.00,0.12
2727.00,0.12
2726.00,0.12
2725.00,0.12
2724.00,0.12
2723.00,0.12
2722.00,0.11
2721.00,0.12
2720.00,0.12
2719.00,0.12
2718.00,0.12
2717.00,0.12
2716.00,0.11
2715.00,0.11
2714.00,0.11
2713.00,0.11
2712.00,0.11
2711.00,0.12
2710.00,0.11
2709.00,0.11
2708.00,0.11
2707.00,0.11
2706.00,0.11
2705.00,0.11
2704.00,0.11
2703.00,0.11
2702.00,0.11
2701.00,0.11
2700.00,0.11
2699.00,0.11
2698.00,0.11
2697.00,0.12
2696.00,0.12
2695.00,0.12
2694.00,0.12
2693.00,0.12
2692.00,0.12
2691.00,0.12
2690.00,0.12
2689.00,0.12
2688.00,0.12
2687.00,0.12
2686.00,0.12
2685.00,0.12
2684.00,0.12
2683.00,0.12
2682.00,0.12
2681.00,0.12
2680.00,0.12
2679.00,0.12
2678.00,0.12
2677.00,0.12
2676.00,0.12
2675.00,0.12
2674.00,0.12
2673.00,0.12
2672.00,0.12
2671.00,0.12
2670.00,0.12
2669.00,0.12
2668.00,0.12
2667.00,0.12
2666.00,0.12
2665.00,0.12
2664.00,0.12
2663.00,0.12
2662.00,0.12
2661.00,0.12
2660.00,0.12
2659.00,0.12
2658.00,0.12
2657.00,0.13
2656.00,0.13
2655.00,0.13
2654.00,0.13
2653.00,0.13
2652.00,0.13
2651.00,0.13
2650.00,0.13
2649.00,0.13
2648.00,0.13
2647.00,0.13
2646.00,0.13
2645.00,0.13
2644.00,0.13
2643.00,0.13
2642.00,0.13
2641.00,0.13
2640.00,0.13
2639.00,0.13
2638.00,0.14
2637.00,0.14
2636.00,0.14
2635.00,0.14
2634.00,0.14
2633.00,0.14
2632.00,0.14
2631.00,0.14
2630.00,0.14
2629.00,0.14
2628.00,0.14
2627.00,0.14
2626.00,0.15
2625.00,0.15
2624.00,0.15
2623.00,0.15
2622.00,0.15
2621.00,0.15
2620.00,0.15
2619.00,0.15
2618.00,0.15
2617.00,0.15
2616.00,0.15
2615.00,0.16
2614.00,0.16
2613.00,0.16
2612.00,0.16
2611.00,0.16
2610.00,0.16
2609.00,0.16
2608.00,0.17
2607.00,0.17
2606.00,0.17
2605.00,0.17
2604.00,0.17
2603.00,0.17
2602.00,0.17
2601.00,0.17
2600.00,0.18
2599.00,0.18
2598.00,0.18
2597.00,0.18
2596.00,0.18
2595.00,0.19
2594.00,0.19
2593.00,0.19
2592.00,0.19
2591.00,0.20
2590.00,0.20
2589.00,0.20
2588.00,0.20
2587.00,0.21
2586.00,0.21
2585.00,0.21
2584.00,0.21
2583.00,0.22
2582.00,0.22
2581.00,0.22
2580.00,0.22
2579.00,0.23
2578.00,0.23
2577.00,0.23
2576.00,0.24
2575.00,0.24
2574.00,0.24
2573.00,0.24
2572.00,0.25
2571.00,0.25
2570.00,0.25
2569.00,0.26
2568.00,0.26
2567.00,0.26
2566.00,0.27
2565.00,0.27
2564.00,0.28
2563.00,0.28
2562.00,0.29
2561.00,0.29
2560.00,0.30
2559.00,0.30
2558.00,0.31
2557.00,0.31
2556.00,0.32
2555.00,0.32
2554.00,0.33
2553.00,0.33
2552.00,0.34
2551.00,0.35
2550.00,0.35
2549.00,0.36
2548.00,0.37
2547.00,0.37
2546.00,0.38
2545.00,0.39
2544.00,0.40
2543.00,0.40
2542.00,0.41
2541.00,0.42
2540.00,0.43
2539.00,0.43
2538.00,0.44
2537.00,0.45
2536.00,0.46
2535.00,0.47
2534.00,0.48
2533.00,0.49
2532.00,0.50
2531.00,0.51
2530.00,0.52
2529.00,0.54
2528.00,0.55
2527.00,0.56
2526.00,0.57
2525.00,0.58
2524.00,0.59
2523.00,0.61
2522.00,0.62
2521.00,0.64
2520.00,0.65
2519.00,0.66
2518.00,0.68
2517.00,0.69
2516.00,0.71
2515.00,0.73
2514.00,0.74
2513.00,0.76
2512.00,0.78
2511.00,0.80
2510.00,0.81
2509.00,0.83
2508.00,0.85
2507.00,0.87
2506.00,0.89
2505.00,0.91
2504.00,0.93
2503.00,0.95
2502.00,0.97
2501.00,0.99
2500.00,1.01
2499.00,1.03
2498.00,1.06
2497.00,1.08
2496.00,1.10
2495.00,1.12
2494.00,1.15
2493.00,1.17
2492.00,1.19
2491.00,1.22
2490.00,1.24
2489.00,1.26
2488.00,1.29
2487.00,1.31
2486.00,1.34
2485.00,1.36
2484.00,1.38
2483.00,1.41
2482.00,1.43
2481.00,1.45
2480.00,1.48
2479.00,1.50
2478.00,1.52
2477.00,1.54
2476.00,1.57
2475.00,1.59
2474.00,1.60
2473.00,1.62
2472.00,1.64
2471.00,1.66
2470.00,1.67
2469.00,1.68
2468.00,1.70
2467.00,1.71
2466.00,1.72
2465.00,1.73
2464.00,1.74
2463.00,1.75
2462.00,1.76
2461.00,1.77
2460.00,1.77
2459.00,1.78
2458.00,1.78
2457.00,1.79
2456.00,1.79
2455.00,1.79
2454.00,1.78
2453.00,1.78
2452.00,1.78
2451.00,1.77
2450.00,1.77
2449.00,1.76
2448.00,1.75
2447.00,1.74
2446.00,1.73
2445.00,1.72
2444.00,1.71
2443.00,1.70
2442.00,1.69
2441.00,1.67
2440.00,1.66
2439.00,1.64
2438.00,1.63
2437.00,1.62
2436.00,1.60
2435.00,1.58
2434.00,1.57
2433.00,1.55
2432.00,1.53
2431.00,1.51
2430.00,1.50
2429.00,1.48
2428.00,1.46
2427.00,1.44
2426.00,1.42
2425.00,1.41
2424.00,1.39
2423.00,1.38
2422.00,1.36
2421.00,1.35
2420.00,1.33
2419.00,1.31
2418.00,1.30
2417.00,1.29
2416.00,1.27
2415.00,1.26
2414.00,1.24
2413.00,1.23
2412.00,1.22
2411.00,1.20
2410.00,1.19
2409.00,1.17
2408.00,1.16
2407.00,1.14
2406.00,1.13
2405.00,1.12
2404.00,1.10
2403.00,1.09
2402.00,1.07
2401.00,1.06
2400.00,1.05
2399.00,1.03
2398.00,1.02
2397.00,1.00
2396.00,0.99
2395.00,0.97
2394.00,0.96
2393.00,0.95
2392.00,0.93
2391.00,0.92
2390.00,0.91
2389.00,0.89
2388.00,0.88
2387.00,0.87
2386.00,0.85
2385.00,0.84
2384.00,0.83
2383.00,0.82
2382.00,0.80
2381.00,0.79
2380.00,0.78
2379.00,0.77
2378.00,0.76
2377.00,0.75
2376.00,0.73
2375.00,0.72
2374.00,0.71
2373.00,0.70
2372.00,0.69
2371.00,0.68
2370.00,0.67
2369.00,0.66
2368.00,0.65
2367.00,0.64
2366.00,0.63
2365.00,0.62
2364.00,0.61
2363.00,0.60
2362.00,0.59
2361.00,0.58
2360.00,0.57
2359.00,0.56
2358.00,0.55
2357.00,0.54
2356.00,0.53
2355.00,0.52
2354.00,0.52
2353.00,0.51
2352.00,0.50
2351.00,0.50
2350.00,0.49
2349.00,0.48
2348.00,0.47
2347.00,0.46
2346.00,0.45
2345.00,0.44
2344.00,0.43
2343.00,0.43
2342.00,0.42
2341.00,0.41
2340.00,0.41
2339.00,0.40
2338.00,0.39
2337.00,0.39
2336.00,0.38
2335.00,0.38
2334.00,0.37
2333.00,0.36
2332.00,0.36
2331.00,0.35
2330.00,0.34
2329.00,0.34
2328.00,0.33
2327.00,0.32
2326.00,0.32
2325.00,0.31
2324.00,0.31
2323.00,0.30
2322.00,0.30
2321.00,0.29
2320.00,0.29
2319.00,0.28
2318.00,0.27
2317.00,0.27
2316.00,0.26
2315.00,0.26
2314.00,0.25
2313.00,0.25
2312.00,0.24
2311.00,0.24
2310.00,0.24
2309.00,0.23
2308.00,0.23
2307.00,0.22
2306.00,0.22
2305.00,0.21
2304.00,0.21
2303.00,0.20
2302.00,0.20
2301.00,0.20
2300.00,0.19
2299.00,0.19
2298.00,0.19
2297.00,0.18
2296.00,0.18
2295.00,0.18
2294.00,0.17
2293.00,0.17
2292.00,0.17
2291.00,0.16
2290.00,0.16
2289.00,0.16
2288.00,0.16
2287.00,0.15
2286.00,0.15
2285.00,0.15
2284.00,0.15
2283.00,0.15
2282.00,0.15
2281.00,0.14
2280.00,0.14
2279.00,0.14
2278.00,0.14
2277.00,0.13
2276.00,0.13
2275.00,0.13
2274.00,0.13
2273.00,0.13
2272.00,0.12
2271.00,0.12
2270.00,0.12
2269.00,0.12
2268.00,0.12
2267.00,0.12
2266.00,0.12
2265.00,0.12
2264.00,0.11
2263.00,0.11
2262.00,0.11
2261.00,0.11
2260.00,0.11
2259.00,0.11
2258.00,0.11
2257.00,0.11
2256.00,0.11
2255.00,0.10
2254.00,0.10
2253.00,0.10
2252.00,0.10
2251.00,0.10
2250.00,0.10
2249.00,0.09
2248.00,0.09
2247.00,0.09
2246.00,0.09
2245.00,0.09
2244.00,0.09
2243.00,0.09
2242.00,0.09
2241.00,0.09
2240.00,0.09
2239.00,0.09
2238.00,0.09
2237.00,0.09
2236.00,0.09
2235.00,0.08
2234.00,0.08
2233.00,0.08
2232.00,0.08
2231.00,0.08
2230.00,0.08
2229.00,0.08
2228.00,0.08
2227.00,0.08
2226.00,0.08
2225.00,0.08
2224.00,0.08
2223.00,0.08
2222.00,0.08
2221.00,0.08
2220.00,0.08
2219.00,0.08
2218.00,0.08
2217.00,0.08
2216.00,0.07
2215.00,0.07
2214.00,0.07
2213.00,0.07
2212.00,0.07
2211.00,0.07
2210.00,0.07
2209.00,0.07
2208.00,0.07
2207.00,0.07
2206.00,0.07
2205.00,0.07
2204.00,0.07
2203.00,0.07
2202.00,0.07
2201.00,0.07
2200.00,0.07
2199.00,0.07
2198.00,0.07
2197.00,0.07
2196.00,0.07
2195.00,0.06
2194.00,0.06
2193.00,0.06
2192.00,0.06
2191.00,0.06
2190.00,0.06
2189.00,0.06
2188.00,0.06
2187.00,0.06
2186.00,0.06
2185.00,0.06
2184.00,0.06
2183.00,0.06
2182.00,0.06
2181.00,0.06
2180.00,0.06
2179.00,0.06
2178.00,0.06
2177.00,0.06
2176.00,0.06
2175.00,0.06
2174.00,0.06
2173.00,0.06
2172.00,0.06
2171.00,0.06
2170.00,0.06
2169.00,0.06
2168.00,0.06
2167.00,0.06
2166.00,0.06
2165.00,0.06
2164.00,0.06
2163.00,0.06
2162.00,0.06
2161.00,0.06
2160.00,0.06
2159.00,0.06
2158.00,0.06
2157.00,0.06
2156.00,0.06
2155.00,0.06
2154.00,0.06
2153.00,0.06
2152.00,0.06
2151.00,0.06
2150.00,0.06
2149.00,0.06
2148.00,0.06
2147.00,0.06
2146.00,0.06
2145.00,0.06
2144.00,0.06
2143.00,0.05
2142.00,0.05
2141.00,0.05
2140.00,0.06
2139.00,0.06
2138.00,0.06
2137.00,0.06
2136.00,0.06
2135.00,0.06
2134.00,0.05
2133.00,0.05
2132.00,0.05
2131.00,0.05
2130.00,0.05
2129.00,0.05
2128.00,0.06
2127.00,0.06
2126.00,0.06
2125.00,0.06
2124.00,0.06
2123.00,0.06
2122.00,0.05
2121.00,0.05
2120.00,0.05
2119.00,0.05
2118.00,0.05
2117.00,0.06
2116.00,0.06
2115.00,0.06
2114.00,0.05
2113.00,0.05
2112.00,0.05
2111.00,0.05
2110.00,0.05
2109.00,0.05
2108.00,0.05
2107.00,0.05
2106.00,0.05
2105.00,0.05
2104.00,0.05
2103.00,0.05
2102.00,0.05
2101.00,0.05
2100.00,0.06
2099.00,0.06
2098.00,0.06
2097.00,0.06
2096.00,0.06
2095.00,0.06
2094.00,0.06
2093.00,0.06
2092.00,0.06
2091.00,0.05
2090.00,0.05
2089.00,0.05
2088.00,0.05
2087.00,0.05
2086.00,0.05
2085.00,0.05
2084.00,0.06
2083.00,0.06
2082.00,0.06
2081.00,0.06
2080.00,0.06
2079.00,0.06
2078.00,0.06
2077.00,0.06
2076.00,0.06
2075.00,0.06
2074.00,0.06
2073.00,0.06
2072.00,0.06
2071.00,0.06
2070.00,0.06
2069.00,0.06
2068.00,0.06
2067.00,0.06
2066.00,0.06
2065.00,0.06
2064.00,0.06
2063.00,0.06
2062.00,0.06
2061.00,0.06
2060.00,0.06
2059.00,0.06
2058.00,0.06
2057.00,0.06
2056.00,0.06
2055.00,0.06
2054.00,0.06
2053.00,0.06
2052.00,0.06
2051.00,0.06
2050.00,0.06
2049.00,0.06
2048.00,0.06
2047.00,0.06
2046.00,0.07
2045.00,0.07
2044.00,0.07
2043.00,0.07
2042.00,0.07
2041.00,0.06
2040.00,0.06
2039.00,0.06
2038.00,0.06
2037.00,0.07
2036.00,0.07
2035.00,0.07
2034.00,0.07
2033.00,0.07
2032.00,0.07
2031.00,0.07
2030.00,0.07
2029.00,0.07
2028.00,0.07
2027.00,0.07
2026.00,0.07
2025.00,0.07
2024.00,0.07
2023.00,0.07
2022.00,0.07
2021.00,0.07
2020.00,0.07
2019.00,0.08
2018.00,0.08
2017.00,0.08
2016.00,0.08
2015.00,0.08
2014.00,0.08
2013.00,0.08
2012.00,0.08
2011.00,0.08
2010.00,0.08
2009.00,0.08
2008.00,0.08
2007.00,0.09
2006.00,0.09
2005.00,0.09
2004.00,0.09
2003.00,0.09
2002.00,0.09
2001.00,0.09
2000.00,0.09
1999.00,0.09
1998.00,0.09
1997.00,0.09
1996.00,0.10
1995.00,0.10
1994.00,0.10
1993.00,0.10
1992.00,0.10
1991.00,0.10
1990.00,0.10
1989.00,0.10
1988.00,0.10
1987.00,0.11
1986.00,0.11
1985.00,0.11
1984.00,0.11
1983.00,0.11
1982.00,0.11
1981.00,0.11
1980.00,0.11
1979.00,0.11
1978.00,0.12
1977.00,0.12
1976.00,0.12
1975.00,0.12
1974.00,0.12
1973.00,0.12
1972.00,0.12
1971.00,0.13
1970.00,0.13
1969.00,0.13
1968.00,0.13
1967.00,0.13
1966.00,0.14
1965.00,0.14
1964.00,0.14
1963.00,0.14
1962.00,0.15
1961.00,0.15
1960.00,0.15
1959.00,0.15
1958.00,0.16
1957.00,0.16
1956.00,0.16
1955.00,0.17
1954.00,0.17
1953.00,0.17
1952.00,0.18
1951.00,0.18
1950.00,0.18
1949.00,0.19
1948.00,0.19
1947.00,0.19
1946.00,0.20
1945.00,0.20
1944.00,0.21
1943.00,0.21
1942.00,0.22
1941.00,0.22
1940.00,0.23
1939.00,0.23
1938.00,0.24
1937.00,0.24
1936.00,0.25
1935.00,0.26
1934.00,0.26
1933.00,0.27
1932.00,0.28
1931.00,0.28
1930.00,0.29
1929.00,0.30
1928.00,0.31
1927.00,0.32
1926.00,0.32
1925.00,0.33
1924.00,0.34
1923.00,0.35
1922.00,0.36
1921.00,0.37
1920.00,0.38
1919.00,0.39
1918.00,0.40
1917.00,0.41
1916.00,0.43
1915.00,0.44
1914.00,0.45
1913.00,0.46
1912.00,0.48
1911.00,0.49
1910.00,0.50
1909.00,0.52
1908.00,0.53
1907.00,0.55
1906.00,0.56
1905.00,0.58
1904.00,0.59
1903.00,0.61
1902.00,0.63
1901.00,0.65
1900.00,0.66
1899.00,0.68
1898.00,0.70
1897.00,0.71
1896.00,0.73
1895.00,0.75
1894.00,0.77
1893.00,0.79
1892.00,0.80
1891.00,0.82
1890.00,0.84
1889.00,0.85
1888.00,0.87
1887.00,0.88
1886.00,0.90
1885.00,0.91
1884.00,0.92
1883.00,0.94
1882.00,0.95
1881.00,0.96
1880.00,0.96
1879.00,0.97
1878.00,0.98
1877.00,0.98
1876.00,0.98
1875.00,0.98
1874.00,0.99
1873.00,0.99
1872.00,0.99
1871.00,0.98
1870.00,0.98
1869.00,0.98
1868.00,0.98
1867.00,0.98
1866.00,0.98
1865.00,0.98
1864.00,0.98
1863.00,0.98
1862.00,0.99
1861.00,0.98
1860.00,0.98
1859.00,0.97
1858.00,0.97
1857.00,0.96
1856.00,0.94
1855.00,0.93
1854.00,0.92
1853.00,0.91
1852.00,0.90
1851.00,0.88
1850.00,0.87
1849.00,0.86
1848.00,0.84
1847.00,0.83
1846.00,0.81
1845.00,0.79
1844.00,0.77
1843.00,0.76
1842.00,0.74
1841.00,0.73
1840.00,0.72
1839.00,0.70
1838.00,0.69
1837.00,0.67
1836.00,0.66
1835.00,0.64
1834.00,0.63
1833.00,0.61
1832.00,0.60
1831.00,0.58
1830.00,0.56
1829.00,0.55
1828.00,0.53
1827.00,0.52
1826.00,0.51
1825.00,0.50
1824.00,0.48
1823.00,0.47
1822.00,0.46
1821.00,0.45
1820.00,0.43
1819.00,0.42
1818.00,0.41
1817.00,0.39
1816.00,0.38
1815.00,0.37
1814.00,0.36
1813.00,0.34
1812.00,0.33
1811.00,0.32
1810.00,0.31
1809.00,0.30
1808.00,0.29
1807.00,0.29
1806.00,0.28
1805.00,0.28
1804.00,0.27
1803.00,0.27
1802.00,0.27
1801.00,0.26
1800.00,0.26
1799.00,0.25
1798.00,0.25
1797.00,0.24
1796.00,0.24
1795.00,0.23
1794.00,0.22
1793.00,0.21
1792.00,0.20
1791.00,0.19
1790.00,0.19
1789.00,0.18
1788.00,0.18
1787.00,0.17
1786.00,0.16
1785.00,0.16
1784.00,0.15
1783.00,0.14
1782.00,0.14
1781.00,0.13
1780.00,0.13
1779.00,0.12
1778.00,0.12
1777.00,0.11
1776.00,0.11
1775.00,0.10
1774.00,0.10
1773.00,0.09
1772.00,0.09
1771.00,0.08
1770.00,0.08
1769.00,0.08
1768.00,0.08
1767.00,0.08
1766.00,0.08
1765.00,0.07
1764.00,0.07
1763.00,0.07
1762.00,0.07
1761.00,0.07
1760.00,0.06
1759.00,0.06
1758.00,0.06
1757.00,0.06
1756.00,0.06
1755.00,0.05
1754.00,0.05
1753.00,0.05
1752.00,0.05
1751.00,0.05
1750.00,0.05
1749.00,0.05
1748.00,0.05
1747.00,0.04
1746.00,0.04
1745.00,0.04
1744.00,0.04
1743.00,0.04
1742.00,0.04
1741.00,0.04
1740.00,0.03
1739.00,0.03
1738.00,0.03
1737.00,0.03
1736.00,0.03
1735.00,0.03
1734.00,0.03
1733.00,0.02
1732.00,0.02
1731.00,0.02
1730.00,0.02
1729.00,0.02
1728.00,0.02
1727.00,0.02
1726.00,0.01
1725.00,0.01
1724.00,0.01
1723.00,0.01
1722.00,0.01
1721.00,0.00
1720.00,0.00
1719.00,0.00
1718.00,0.00
1717.00,0.00
1716.00,0.00
1715.00,0.00
1714.00,0.00
1713.00,0.00
1712.00,0.00
1711.00,0.00
1710.00,0.00
1709.00,0.00
1708.00,0.00
1707.00,0.00
1706.00,0.01
1705.00,0.01
1704.00,0.01
1703.00,0.01
1702.00,0.01
1701.00,0.01
1700.00,0.02
1699.00,0.03
1698.00,0.04
1697.00,0.05
1696.00,0.07
1695.00,0.10
1694.00,0.13
1693.00,0.16
1692.00,0.19
1691.00,0.22
1690.00,0.25
1689.00,0.27
1688.00,0.28
1687.00,0.29
1686.00,0.29
1685.00,0.28
1684.00,0.27
1683.00,0.25
1682.00,0.24
1681.00,0.23
1680.00,0.22
1679.00,0.21
1678.00,0.20
1677.00,0.19
1676.00,0.18
1675.00,0.18
1674.00,0.17
1673.00,0.17
1672.00,0.17
1671.00,0.16
1670.00,0.16
1669.00,0.16
1668.00,0.15
1667.00,0.15
1666.00,0.15
1665.00,0.14
1664.00,0.14
1663.00,0.13
1662.00,0.13
1661.00,0.12
1660.00,0.12
1659.00,0.11
1658.00,0.11
1657.00,0.10
1656.00,0.10
1655.00,0.09
1654.00,0.09
1653.00,0.09
1652.00,0.08
1651.00,0.08
1650.00,0.08
1649.00,0.07
1648.00,0.07
1647.00,0.07
1646.00,0.07
1645.00,0.07
1644.00,0.07
1643.00,0.07
1642.00,0.07
1641.00,0.06
1640.00,0.06
1639.00,0.06
1638.00,0.06
1637.00,0.06
1636.00,0.06
1635.00,0.06
1634.00,0.05
1633.00,0.05
1632.00,0.05
1631.00,0.05
1630.00,0.05
1629.00,0.05
1628.00,0.05
1627.00,0.05
1626.00,0.05
1625.00,0.05
1624.00,0.05
1623.00,0.05
1622.00,0.05
1621.00,0.05
1620.00,0.04
1619.00,0.04
1618.00,0.04
1617.00,0.04
1616.00,0.04
1615.00,0.04
1614.00,0.04
1613.00,0.04
1612.00,0.04
1611.00,0.04
1610.00,0.04
1609.00,0.04
1608.00,0.04
1607.00,0.04
1606.00,0.04
1605.00,0.04
1604.00,0.04
1603.00,0.04
1602.00,0.04
1601.00,0.04
1600.00,0.04
1599.00,0.04
1598.00,0.04
1597.00,0.04
1596.00,0.04
1595.00,0.04
1594.00,0.04
1593.00,0.04
1592.00,0.03
1591.00,0.03
1590.00,0.03
1589.00,0.03
1588.00,0.03
1587.00,0.03
1586.00,0.03
1585.00,0.03
1584.00,0.03
1583.00,0.03
1582.00,0.03
1581.00,0.03
1580.00,0.03
1579.00,0.03
1578.00,0.03
1577.00,0.03
1576.00,0.03
1575.00,0.03
1574.00,0.03
1573.00,0.03
1572.00,0.03
1571.00,0.03
1570.00,0.03
1569.00,0.03
1568.00,0.03
1567.00,0.03
1566.00,0.03
1565.00,0.03
1564.00,0.03
1563.00,0.03
1562.00,0.03
1561.00,0.03
1560.00,0.03
1559.00,0.03
1558.00,0.03
1557.00,0.03
1556.00,0.03
1555.00,0.02
1554.00,0.02
1553.00,0.02
1552.00,0.02
1551.00,0.03
1550.00,0.03
1549.00,0.03
1548.00,0.03
1547.00,0.03
1546.00,0.03
1545.00,0.03
1544.00,0.02
1543.00,0.03
1542.00,0.03
1541.00,0.03
1540.00,0.03
1539.00,0.02
1538.00,0.02
1537.00,0.02
1536.00,0.02
1535.00,0.02
1534.00,0.02
1533.00,0.02
1532.00,0.02
1531.00,0.02
1530.00,0.02
1529.00,0.02
1528.00,0.02
1527.00,0.02
1526.00,0.02
1525.00,0.02
1524.00,0.02
1523.00,0.02
1522.00,0.02
1521.00,0.02
1520.00,0.02
1519.00,0.02
1518.00,0.02
1517.00,0.02
1516.00,0.02
1515.00,0.02
1514.00,0.02
1513.00,0.02
1512.00,0.02
1511.00,0.02
1510.00,0.02
1509.00,0.02
1508.00,0.02
1507.00,0.02
1506.00,0.02
1505.00,0.02
1504.00,0.02
1503.00,0.02
1502.00,0.02
1501.00,0.02
1500.00,0.02
1499.00,0.02
1498.00,0.02
1497.00,0.02
1496.00,0.03
1495.00,0.03
1494.00,0.03
1493.00,0.03
1492.00,0.03
1491.00,0.03
1490.00,0.03
1489.00,0.02
1488.00,0.02
1487.00,0.02
1486.00,0.02
1485.00,0.02
1484.00,0.02
1483.00,0.02
1482.00,0.02
1481.00,0.03
1480.00,0.02
1479.00,0.02
1478.00,0.02
1477.00,0.02
1476.00,0.02
1475.00,0.02
1474.00,0.02
1473.00,0.02
1472.00,0.02
1471.00,0.02
1470.00,0.02
1469.00,0.02
1468.00,0.02
1467.00,0.02
1466.00,0.02
1465.00,0.02
1464.00,0.02
1463.00,0.02
1462.00,0.02
1461.00,0.02
1460.00,0.02
1459.00,0.02
1458.00,0.02
1457.00,0.02
1456.00,0.02
1455.00,0.02
1454.00,0.02
1453.00,0.02
1452.00,0.02
1451.00,0.02
1450.00,0.02
1449.00,0.02
1448.00,0.02
1447.00,0.02
1446.00,0.02
1445.00,0.02
1444.00,0.02
1443.00,0.02
1442.00,0.02
1441.00,0.02
1440.00,0.02
1439.00,0.03
1438.00,0.02
1437.00,0.02
1436.00,0.02
1435.00,0.02
1434.00,0.02
1433.00,0.02
1432.00,0.02
1431.00,0.02
1430.00,0.02
1429.00,0.02
1428.00,0.02
1427.00,0.03
1426.00,0.03
1425.00,0.03
1424.00,0.02
1423.00,0.02
1422.00,0.02
1421.00,0.02
1420.00,0.02
1419.00,0.02
1418.00,0.02
1417.00,0.02
1416.00,0.02
1415.00,0.02
1414.00,0.02
1413.00,0.02
1412.00,0.02
1411.00,0.02
1410.00,0.02
1409.00,0.03
1408.00,0.03
1407.00,0.03
1406.00,0.03
1405.00,0.03
1404.00,0.02
1403.00,0.02
1402.00,0.03
1401.00,0.03
1400.00,0.03
1399.00,0.03
1398.00,0.03
1397.00,0.03
1396.00,0.03
1395.00,0.03
1394.00,0.03
1393.00,0.03
1392.00,0.03
1391.00,0.03
1390.00,0.03
1389.00,0.03
1388.00,0.03
1387.00,0.03
1386.00,0.03
1385.00,0.03
1384.00,0.03
1383.00,0.03
1382.00,0.03
1381.00,0.03
1380.00,0.03
1379.00,0.03
1378.00,0.03
1377.00,0.03
1376.00,0.03
1375.00,0.04
1374.00,0.04
1373.00,0.04
1372.00,0.04
1371.00,0.04
1370.00,0.04
1369.00,0.04
1368.00,0.04
1367.00,0.04
1366.00,0.04
1365.00,0.04
1364.00,0.04
1363.00,0.04
1362.00,0.04
1361.00,0.04
1360.00,0.04
1359.00,0.04
1358.00,0.05
1357.00,0.05
1356.00,0.05
1355.00,0.05
1354.00,0.05
1353.00,0.05
1352.00,0.05
1351.00,0.05
1350.00,0.05
1349.00,0.05
1348.00,0.05
1347.00,0.04
1346.00,0.04
1345.00,0.04
1344.00,0.04
1343.00,0.04
1342.00,0.04
1341.00,0.04
1340.00,0.04
1339.00,0.04
1338.00,0.04
1337.00,0.03
1336.00,0.03
1335.00,0.04
1334.00,0.04
1333.00,0.04
1332.00,0.04
1331.00,0.04
1330.00,0.04
1329.00,0.05
1328.00,0.05
1327.00,0.05
1326.00,0.05
1325.00,0.06
1324.00,0.06
1323.00,0.06
1322.00,0.06
1321.00,0.06
1320.00,0.06
1319.00,0.06
1318.00,0.06
1317.00,0.06
1316.00,0.05
1315.00,0.05
1314.00,0.04
1313.00,0.03
1312.00,0.03
1311.00,0.03
1310.00,0.03
1309.00,0.03
1308.00,0.03
1307.00,0.03
1306.00,0.03
1305.00,0.03
1304.00,0.04
1303.00,0.04
1302.00,0.04
1301.00,0.04
1300.00,0.04
1299.00,0.05
1298.00,0.05
1297.00,0.05
1296.00,0.06
1295.00,0.06
1294.00,0.06
1293.00,0.06
1292.00,0.07
1291.00,0.07
1290.00,0.07
1289.00,0.07
1288.00,0.08
1287.00,0.08
1286.00,0.08
1285.00,0.09
1284.00,0.09
1283.00,0.09
1282.00,0.10
1281.00,0.10
1280.00,0.11
1279.00,0.11
1278.00,0.11
1277.00,0.11
1276.00,0.11
1275.00,0.11
1274.00,0.11
1273.00,0.12
1272.00,0.12
1271.00,0.12
1270.00,0.13
1269.00,0.13
1268.00,0.13
1267.00,0.13
1266.00,0.13
1265.00,0.13
1264.00,0.13
1263.00,0.14
1262.00,0.14
1261.00,0.15
1260.00,0.16
1259.00,0.17
1258.00,0.17
1257.00,0.18
1256.00,0.19
1255.00,0.20
1254.00,0.21
1253.00,0.22
1252.00,0.22
1251.00,0.23
1250.00,0.24
1249.00,0.24
1248.00,0.24
1247.00,0.25
1246.00,0.25
1245.00,0.25
1244.00,0.25
1243.00,0.25
1242.00,0.25
1241.00,0.24
1240.00,0.24
1239.00,0.23
1238.00,0.23
1237.00,0.22
1236.00,0.20
1235.00,0.19
1234.00,0.18
1233.00,0.17
1232.00,0.16
1231.00,0.14
1230.00,0.12
1229.00,0.11
1228.00,0.09
1227.00,0.08
1226.00,0.07
1225.00,0.05
1224.00,0.05
1223.00,0.04
1222.00,0.03
1221.00,0.03
1220.00,0.03
1219.00,0.04
1218.00,0.05
1217.00,0.05
1216.00,0.07
1215.00,0.08
1214.00,0.09
1213.00,0.11
1212.00,0.12
1211.00,0.14
1210.00,0.16
1209.00,0.18
1208.00,0.19
1207.00,0.21
1206.00,0.22
1205.00,0.24
1204.00,0.25
1203.00,0.26
1202.00,0.27
1201.00,0.27
1200.00,0.28
1199.00,0.28
1198.00,0.29
1197.00,0.29
1196.00,0.29
1195.00,0.28
1194.00,0.28
1193.00,0.28
1192.00,0.27
1191.00,0.27
1190.00,0.26
1189.00,0.25
1188.00,0.24
1187.00,0.24
1186.00,0.23
1185.00,0.23
1184.00,0.22
1183.00,0.22
1182.00,0.21
1181.00,0.21
1180.00,0.20
1179.00,0.20
1178.00,0.19
1177.00,0.19
1176.00,0.18
1175.00,0.18
1174.00,0.17
1173.00,0.17
1172.00,0.16
1171.00,0.16
1170.00,0.15
1169.00,0.15
1168.00,0.14
1167.00,0.14
1166.00,0.13
1165.00,0.13
1164.00,0.13
1163.00,0.12
1162.00,0.12
1161.00,0.11
1160.00,0.11
1159.00,0.10
1158.00,0.10
1157.00,0.09
1156.00,0.09
1155.00,0.08
1154.00,0.08
1153.00,0.08
1152.00,0.07
1151.00,0.07
1150.00,0.07
1149.00,0.07
1148.00,0.07
1147.00,0.07
1146.00,0.06
1145.00,0.06
1144.00,0.06
1143.00,0.05
1142.00,0.05
1141.00,0.05
1140.00,0.05
1139.00,0.05
1138.00,0.04
1137.00,0.04
1136.00,0.04
1135.00,0.04
1134.00,0.04
1133.00,0.03
1132.00,0.03
1131.00,0.03
1130.00,0.02
1129.00,0.02
1128.00,0.02
1127.00,0.02
1126.00,0.02
1125.00,0.02
1124.00,0.02
1123.00,0.02
1122.00,0.01
1121.00,0.01
1120.00,0.01
1119.00,0.01
1118.00,0.01
1117.00,0.02
1116.00,0.02
1115.00,0.02
1114.00,0.03
1113.00,0.03
1112.00,0.04
1111.00,0.04
1110.00,0.04
1109.00,0.04
1108.00,0.04
1107.00,0.03
1106.00,0.03
1105.00,0.03
1104.00,0.03
1103.00,0.03
1102.00,0.03
1101.00,0.03
1100.00,0.03
1099.00,0.02
1098.00,0.02
1097.00,0.02
1096.00,0.02
1095.00,0.02
1094.00,0.02
1093.00,0.02
1092.00,0.01
1091.00,0.01
1090.00,0.01
1089.00,0.02
1088.00,0.02
1087.00,0.02
1086.00,0.02
1085.00,0.01
1084.00,0.01
1083.00,0.01
1082.00,0.02
1081.00,0.02
1080.00,0.02
1079.00,0.02
1078.00,0.02
1077.00,0.02
1076.00,0.01
1075.00,0.01
1074.00,0.01
1073.00,0.01
1072.00,0.01
1071.00,0.01
1070.00,0.01
1069.00,0.01
1068.00,0.01
1067.00,0.01
1066.00,0.01
1065.00,0.01
1064.00,0.01
1063.00,0.01
1062.00,0.01
1061.00,0.01
1060.00,0.01
1059.00,0.01
1058.00,0.01
1057.00,0.01
1056.00,0.01
1055.00,0.01
1054.00,0.01
1053.00,0.01
1052.00,0.01
1051.00,0.01
1050.00,0.01
1049.00,0.01
1048.00,0.01
1047.00,0.01
1046.00,0.01
1045.00,0.01
1044.00,0.01
1043.00,0.01
1042.00,0.01
1041.00,0.01
1040.00,0.01
1039.00,0.01
1038.00,0.01
1037.00,0.01
1036.00,0.01
1035.00,0.01
1034.00,0.01
1033.00,0.01
1032.00,0.01
1031.00,0.01
1030.00,0.01
1029.00,0.01
1028.00,0.01
1027.00,0.01
1026.00,0.01
1025.00,0.01
1024.00,0.01
1023.00,0.01
1022.00,0.01
1021.00,0.01
1020.00,0.01
1019.00,0.01
1018.00,0.01
1017.00,0.01
1016.00,0.01
1015.00,0.01
1014.00,0.00
1013.00,0.00
1012.00,0.00
1011.00,0.00
1010.00,0.00
1009.00,0.01
1008.00,0.01
1007.00,0.01
1006.00,0.01
1005.00,0.01
1004.00,0.01
1003.00,0.01
1002.00,0.01
1001.00,0.01
1000.00,0.01
999.00,0.01
998.00,0.01
997.00,0.02
996.00,0.01
995.00,0.01
994.00,0.01
993.00,0.01
992.00,0.00
991.00,0.00
990.00,0.00
989.00,0.00
988.00,0.00
987.00,0.00
986.00,0.00
985.00,0.00
984.00,0.00
983.00,0.00
982.00,0.00
981.00,0.00
980.00,0.00
979.00,0.00
978.00,0.01
977.00,0.01
976.00,0.01
975.00,0.00
974.00,0.00
973.00,0.00
972.00,0.00
971.00,0.00
970.00,0.00
969.00,0.00
968.00,0.00
967.00,0.00
966.00,0.00
965.00,0.00
964.00,0.00
963.00,0.00
962.00,0.01
961.00,0.00
960.00,0.00
959.00,0.00
958.00,0.01
957.00,0.01
956.00,0.01
955.00,0.00
954.00,0.00
953.00,0.00
952.00,0.00
951.00,0.00
950.00,0.00
949.00,0.00
948.00,0.00
947.00,0.00
946.00,0.00
945.00,0.00
944.00,0.00
943.00,0.00
942.00,0.00
941.00,0.01
940.00,0.00
939.00,0.00
938.00,0.00
937.00,0.00
936.00,0.00
935.00,0.00
934.00,0.00
933.00,0.00
932.00,0.01
931.00,0.01
930.00,0.01
929.00,0.00
928.00,0.01
927.00,0.01
926.00,0.01
925.00,0.00
924.00,0.00
923.00,0.00
922.00,0.00
921.00,0.00
920.00,0.00
919.00,0.00
918.00,0.00
917.00,0.00
916.00,0.00
915.00,0.00
914.00,0.00
913.00,0.01
912.00,0.01
911.00,0.01
910.00,0.01
909.00,0.00
908.00,0.01
907.00,0.01
906.00,0.01
905.00,0.00
904.00,0.00
903.00,0.00
902.00,0.01
901.00,0.01
900.00,0.00
899.00,0.00
898.00,0.00
897.00,0.00
896.00,0.00
895.00,0.00
894.00,0.00
893.00,0.00
892.00,0.00
891.00,0.01
890.00,0.00
889.00,0.00
888.00,0.00
887.00,0.00
886.00,0.00
885.00,0.01
884.00,0.01
883.00,0.01
882.00,0.01
881.00,0.01
880.00,0.00
879.00,0.00
878.00,0.00
877.00,0.00
876.00,0.00
875.00,0.00
874.00,0.00
873.00,0.00
872.00,0.00
871.00,0.00
870.00,0.00
869.00,0.00
868.00,0.00
867.00,0.00
866.00,0.01
865.00,0.01
864.00,0.01
863.00,0.00
862.00,0.00
861.00,0.00
860.00,0.01
859.00,0.01
858.00,0.01
857.00,0.01
856.00,0.01
855.00,0.00
854.00,0.00
853.00,0.00
852.00,0.00
851.00,0.00
850.00,0.00
849.00,0.01
848.00,0.01
847.00,0.01
846.00,0.01
845.00,0.01
844.00,0.01
843.00,0.01
842.00,0.01
841.00,0.01
840.00,0.01
839.00,0.01
838.00,0.01
837.00,0.00
836.00,0.01
835.00,0.01
834.00,0.01
833.00,0.00
832.00,0.00
831.00,0.01
830.00,0.01
829.00,0.01
828.00,0.01
827.00,0.01
826.00,0.00
825.00,0.00
824.00,0.01
823.00,0.01
822.00,0.01
821.00,0.01
820.00,0.01
819.00,0.01
818.00,0.01
817.00,0.01
816.00,0.01
815.00,0.01
814.00,0.00
813.00,0.00
812.00,0.00
811.00,0.00
810.00,0.00
809.00,0.00
808.00,0.00
807.00,0.00
806.00,0.00
805.00,0.00
804.00,0.00
803.00,0.01
802.00,0.01
801.00,0.01
800.00,0.01
799.00,0.01
798.00,0.01
797.00,0.01
796.00,0.01
795.00,0.01
794.00,0.01
793.00,0.00
792.00,0.00
791.00,0.00
790.00,0.00
789.00,0.00
788.00,0.00
787.00,0.01
786.00,0.01
785.00,0.01
784.00,0.01
783.00,0.01
782.00,0.01
781.00,0.00
780.00,0.00
779.00,0.00
778.00,0.00
777.00,0.00
776.00,0.01
775.00,0.01
774.00,0.01
773.00,0.01
772.00,0.00
771.00,0.00
770.00,0.00
769.00,0.00
768.00,0.01
767.00,0.01
766.00,0.01
765.00,0.00
764.00,0.00
763.00,0.00
762.00,0.00
761.00,0.00
760.00,0.01
759.00,0.01
758.00,0.01
757.00,0.01
756.00,0.01
755.00,0.01
754.00,0.01
753.00,0.01
752.00,0.01
751.00,0.00
750.00,0.00
749.00,0.00
748.00,0.00
747.00,0.01
746.00,0.01
745.00,0.00
744.00,0.00
743.00,0.00
742.00,0.00
741.00,0.00
740.00,0.00
739.00,0.00
738.00,0.00
737.00,0.00
736.00,0.00
735.00,0.00
734.00,0.00
733.00,0.01
732.00,0.01
731.00,0.00
730.00,0.00
729.00,0.00
728.00,0.00
727.00,0.01
726.00,0.01
725.00,0.01
724.00,0.01
723.00,0.01
722.00,0.00
721.00,0.00
720.00,0.00
719.00,0.00
718.00,0.01
717.00,0.01
716.00,0.01
715.00,0.01
714.00,0.01
713.00,0.01
712.00,0.01
711.00,0.01
710.00,0.01
709.00,0.01
708.00,0.01
707.00,0.01
706.00,0.01
705.00,0.01
704.00,0.01
703.00,0.01
702.00,0.01
701.00,0.01
700.00,0.01
699.00,0.01
698.00,0.01
697.00,0.01
696.00,0.00
695.00,0.01
694.00,0.01
693.00,0.01
692.00,0.01
691.00,0.01
690.00,0.00
689.00,0.00
688.00,0.01
687.00,0.01
686.00,0.01
685.00,0.00
684.00,0.01
683.00,0.01
682.00,0.01
681.00,0.01
680.00,0.00
679.00,0.01
678.00,0.01
677.00,0.01
676.00,0.01
675.00,0.01
674.00,0.01
673.00,0.01
672.00,0.01
671.00,0.01
670.00,0.01
669.00,0.00
668.00,0.00
667.00,0.00
666.00,0.00
665.00,0.00
664.00,0.00
663.00,0.01
662.00,0.00
661.00,0.00
660.00,0.00
659.00,0.01
658.00,0.01
657.00,0.01
656.00,0.00
655.00,0.00
654.00,0.00
653.00,0.00
652.00,0.00
651.00,0.00
650.00,0.01
649.00,0.01
648.00,0.01
647.00,0.01
646.00,0.01
645.00,0.01
644.00,0.00
643.00,0.00
642.00,0.00
641.00,0.00
640.00,0.01
639.00,0.01
638.00,0.02
637.00,0.02
636.00,0.01
635.00,0.01
634.00,0.01
633.00,0.01
632.00,0.01
631.00,0.01
630.00,0.01
629.00,0.01
628.00,0.01
627.00,0.01
626.00,0.01
625.00,0.01
624.00,0.01
623.00,0.00
622.00,0.00
621.00,0.00
620.00,0.00
619.00,0.00
618.00,0.00
617.00,0.01
616.00,0.01
615.00,0.01
614.00,0.01
613.00,0.01
612.00,0.01
611.00,0.02
610.00,0.01
609.00,0.01
608.00,0.01
607.00,0.01
606.00,0.01
605.00,0.00
604.00,0.00
603.00,0.00
602.00,0.01
601.00,0.01
600.00,0.01
599.00,0.01
598.00,0.01
597.00,0.01
596.00,0.01
595.00,0.01
594.00,0.01
593.00,0.01
592.00,0.01
591.00,0.01
590.00,0.01
589.00,0.01
588.00,0.01
587.00,0.00
586.00,0.00
585.00,0.00
584.00,0.00
583.00,0.01
582.00,0.01
581.00,0.01
580.00,0.01
579.00,0.01
578.00,0.01
577.00,0.01
576.00,0.01
575.00,0.01
574.00,0.01
573.00,0.02
572.00,0.03
571.00,0.02
570.00,0.01
569.00,0.01
568.00,0.01
567.00,0.01
566.00,0.01
565.00,0.00
564.00,0.01
563.00,0.01
562.00,0.01
561.00,0.01
560.00,0.01
559.00,0.01
558.00,0.01
557.00,0.01
556.00,0.01
555.00,0.02
554.00,0.02
553.00,0.02
552.00,0.02
551.00,0.02
550.00,0.02
549.00,0.02
548.00,0.02
547.00,0.01
546.00,0.01
545.00,0.01
544.00,0.01
543.00,0.01
542.00,0.01
541.00,0.02
540.00,0.02
539.00,0.03
538.00,0.02
537.00,0.02
536.00,0.01
535.00,0.02
534.00,0.03
533.00,0.03
532.00,0.02
531.00,0.01
530.00,0.01
529.00,0.02
528.00,0.03
527.00,0.02
526.00,0.01
525.00,0.00
524.00,0.00
523.00,0.01
522.00,0.02
521.00,0.04
520.00,0.04
519.00,0.04
518.00,0.03
517.00,0.01
516.00,0.01
515.00,0.02
514.00,0.02
513.00,0.02
512.00,0.02
511.00,0.03
510.00,0.03
509.00,0.02
508.00,0.02
507.00,0.02
506.00,0.02
505.00,0.03
504.00,0.03
503.00,0.03
502.00,0.03
501.00,0.02
500.00,0.01
499.00,0.00
498.00,0.01
497.00,0.02
496.00,0.02
495.00,0.01
494.00,0.01
493.00,0.01
492.00,0.02
491.00,0.03
490.00,0.03
489.00,0.03
488.00,0.04
487.00,0.04
486.00,0.03
485.00,0.02
484.00,0.01
483.00,0.01
482.00,0.02
481.00,0.02
480.00,0.01
479.00,0.01
478.00,0.02
477.00,0.02
476.00,0.02
475.00,0.02
474.00,0.02
473.00,0.03
472.00,0.02
471.00,0.01
470.00,0.02
469.00,0.04
468.00,0.05
467.00,0.05
466.00,0.05
465.00,0.06
464.00,0.06
463.00,0.06
462.00,0.04
461.00,0.03
460.00,0.04
459.00,0.04
458.00,0.03
457.00,0.02
456.00,0.02
455.00,0.02
454.00,0.02
453.00,0.03
452.00,0.05
451.00,0.05
450.00,0.04
449.00,0.02
448.00,0.01
447.00,0.02
446.00,0.02
445.00,0.02
444.00,0.02
443.00,0.03
442.00,0.04
441.00,0.03
440.00,0.03
439.00,0.02
438.00,0.02
437.00,0.04
436.00,0.08
435.00,0.10
434.00,0.09
433.00,0.07
432.00,0.05
431.00,0.05
430.00,0.05
429.00,0.07
428.00,0.10
427.00,0.12
426.00,0.12
425.00,0.11
424.00,0.11
423.00,0.11
422.00,0.11
421.00,0.09
420.00,0.06
419.00,0.06
418.00,0.08
417.00,0.09
416.00,0.08
415.00,0.06
414.00,0.03
413.00,0.03
412.00,0.04
411.00,0.04
410.00,0.04
409.00,0.06
408.00,0.10
407.00,0.14
406.00,0.16
405.00,0.15
404.00,0.12
403.00,0.12
402.00,0.11
401.00,0.08
400.00,0.05
