;2;
Wavenumbers [1/cm];Transmittance;
7496,969;0,07180805;
7495,040;0,07160918;
7493,112;0,07132363;
7491,183;0,07117978;
7489,254;0,07100473;
7487,326;0,0709224;
7485,397;0,07129098;
7483,468;0,07155056;
7481,539;0,07118876;
7479,611;0,0707404;
7477,682;0,0703893;
7475,753;0,06973962;
7473,824;0,06908921;
7471,896;0,06888553;
7469,967;0,06904026;
7468,038;0,06933668;
7466,110;0,06956109;
7464,181;0,06966062;
7462,252;0,06974443;
7460,323;0,06995305;
7458,395;0,07022666;
7456,466;0,07037021;
7454,537;0,07066608;
7452,608;0,07134937;
7450,680;0,07180174;
7448,751;0,07149658;
7446,822;0,07097735;
7444,893;0,07104236;
7442,965;0,07159534;
7441,036;0,07203642;
7439,107;0,07226691;
7437,179;0,07281251;
7435,250;0,07381459;
7433,321;0,07455114;
7431,392;0,07455366;
7429,464;0,07401101;
7427,535;0,07357367;
7425,606;0,07408404;
7423,677;0,07517383;
7421,749;0,07567373;
7419,820;0,07585511;
7417,891;0,07638646;
7415,963;0,07700961;
7414,034;0,07782591;
7412,105;0,07897732;
7410,176;0,07997112;
7408,248;0,08053012;
7406,319;0,08089302;
7404,390;0,08135724;
7402,461;0,08192787;
7400,533;0,08270576;
7398,604;0,0838256;
7396,675;0,08487012;
7394,747;0,08552858;
7392,818;0,08604836;
7390,889;0,08675399;
7388,960;0,0876708;
7387,032;0,08853456;
7385,103;0,08934937;
7383,174;0,09039296;
7381,245;0,09144215;
7379,317;0,09213006;
7377,388;0,0930853;
7375,459;0,0947099;
7373,531;0,09601193;
7371,602;0,09678463;
7369,673;0,09802472;
7367,744;0,09970137;
7365,816;0,1012143;
7363,887;0,1027903;
7361,958;0,1043638;
7360,029;0,105417;
7358,101;0,1063259;
7356,172;0,1075074;
7354,243;0,1087407;
7352,314;0,1101753;
7350,386;0,1118812;
7348,457;0,113448;
7346,528;0,1150115;
7344,600;0,1168845;
7342,671;0,1187538;
7340,742;0,1206091;
7338,813;0,1227855;
7336,885;0,1248133;
7334,956;0,1261286;
7333,027;0,1273167;
7331,098;0,1292701;
7329,170;0,1316941;
7327,241;0,1336724;
7325,312;0,1350804;
7323,384;0,1364371;
7321,455;0,1382114;
7319,526;0,1402088;
7317,597;0,1419455;
7315,669;0,143968;
7313,740;0,1466399;
7311,811;0,1489328;
7309,882;0,150621;
7307,954;0,1525587;
7306,025;0,1546833;
7304,096;0,1565659;
7302,168;0,1583585;
7300,239;0,1602878;
7298,310;0,1623355;
7296,381;0,1644579;
7294,453;0,1668832;
7292,524;0,1695914;
7290,595;0,1718513;
7288,666;0,1733383;
7286,738;0,1748613;
7284,809;0,1768635;
7282,880;0,1788823;
7280,952;0,180851;
7279,023;0,1826971;
7277,094;0,1839249;
7275,165;0,1849899;
7273,237;0,1867324;
7271,308;0,1886074;
7269,379;0,1897462;
7267,450;0,1905534;
7265,522;0,1916851;
7263,593;0,1929689;
7261,664;0,193906;
7259,736;0,194584;
7257,807;0,195551;
7255,878;0,196683;
7253,949;0,1976686;
7252,021;0,1987284;
7250,092;0,199807;
7248,163;0,2004627;
7246,234;0,2004762;
7244,306;0,2003954;
7242,377;0,2008533;
7240,448;0,2012792;
7238,519;0,2009657;
7236,591;0,2004136;
7234,662;0,200332;
7232,733;0,2005062;
7230,805;0,2003884;
7228,876;0,199898;
7226,947;0,1991757;
7225,018;0,1983626;
7223,090;0,1974897;
7221,161;0,1964335;
7219,232;0,1953127;
7217,303;0,1943761;
7215,375;0,1934827;
7213,446;0,1923324;
7211,517;0,1909977;
7209,589;0,1895549;
7207,660;0,1878233;
7205,731;0,1859139;
7203,802;0,1840546;
7201,874;0,1823286;
7199,945;0,1807645;
7198,016;0,178993;
7196,087;0,1768628;
7194,159;0,174845;
7192,230;0,1731169;
7190,301;0,1715634;
7188,373;0,1699734;
7186,444;0,1680607;
7184,515;0,1659063;
7182,586;0,1637077;
7180,658;0,161528;
7178,729;0,159315;
7176,800;0,1569322;
7174,871;0,1545919;
7172,943;0,1525671;
7171,014;0,1505991;
7169,085;0,1484962;
7167,157;0,1464471;
7165,228;0,1443851;
7163,299;0,1422573;
7161,370;0,1403278;
7159,442;0,138625;
7157,513;0,1367586;
7155,584;0,1343697;
7153,655;0,1318108;
7151,727;0,1296689;
7149,798;0,1278764;
7147,869;0,1260806;
7145,941;0,1241891;
7144,012;0,1223918;
7142,083;0,1207926;
7140,154;0,1191904;
7138,226;0,1173531;
7136,297;0,1152995;
7134,368;0,1133199;
7132,439;0,1115213;
7130,511;0,1096757;
7128,582;0,1076625;
7126,653;0,1056826;
7124,724;0,1041354;
7122,796;0,1031996;
7120,867;0,1023611;
7118,938;0,1010289;
7117,010;0,09930554;
7115,081;0,09748422;
7113,152;0,09585807;
7111,223;0,09469849;
7109,295;0,09377328;
7107,366;0,09266713;
7105,437;0,09139254;
7103,508;0,09032445;
7101,580;0,08945641;
7099,651;0,08836634;
7097,722;0,08698923;
7095,794;0,08557303;
7093,865;0,08430015;
7091,936;0,08317693;
7090,007;0,08215096;
7088,079;0,08125232;
7086,150;0,08046199;
7084,221;0,07977093;
7082,292;0,07909443;
7080,364;0,07823103;
7078,435;0,07730438;
7076,506;0,07651112;
7074,578;0,07551455;
7072,649;0,07412226;
7070,720;0,07290071;
7068,791;0,07223529;
7066,863;0,07184213;
7064,934;0,07158615;
7063,005;0,07135691;
7061,076;0,07075007;
7059,148;0,07002261;
7057,219;0,06961989;
7055,290;0,06912029;
7053,362;0,06827695;
7051,433;0,06747047;
7049,504;0,06688601;
7047,575;0,06653152;
7045,647;0,06633946;
7043,718;0,06596651;
7041,789;0,06536049;
7039,860;0,06492455;
7037,932;0,06466897;
7036,003;0,06429925;
7034,074;0,06391548;
7032,146;0,06368958;
7030,217;0,06349685;
7028,288;0,06326965;
7026,359;0,06293557;
7024,431;0,06237332;
7022,502;0,06205148;
7020,573;0,06242079;
7018,644;0,0629044;
7016,716;0,06288031;
7014,787;0,06262749;
7012,858;0,06242346;
7010,929;0,06197382;
7009,001;0,0612707;
7007,072;0,06073793;
7005,143;0,06057701;
7003,215;0,06068595;
7001,286;0,06085722;
6999,357;0,06098063;
6997,428;0,06095057;
6995,500;0,06064774;
6993,571;0,06035539;
6991,642;0,0605341;
6989,713;0,06100493;
6987,785;0,06114535;
6985,856;0,06096764;
6983,927;0,06100581;
6981,999;0,06133167;
6980,070;0,06164031;
6978,141;0,06184511;
6976,212;0,06201773;
6974,284;0,06216711;
6972,355;0,0623093;
6970,426;0,06252123;
6968,497;0,06266771;
6966,569;0,062571;
6964,640;0,06264034;
6962,711;0,06325008;
6960,783;0,06387276;
6958,854;0,06419794;
6956,925;0,06463435;
6954,996;0,06527391;
6953,068;0,06580828;
6951,139;0,06602913;
6949,210;0,066075;
6947,281;0,06629565;
6945,353;0,06669535;
6943,424;0,06698985;
6941,495;0,06732755;
6939,567;0,06804767;
6937,638;0,06884142;
6935,709;0,06938028;
6933,780;0,06990979;
6931,852;0,07050663;
6929,923;0,07110299;
6927,994;0,07181225;
6926,065;0,07258616;
6924,137;0,0734334;
6922,208;0,0744613;
6920,279;0,07535574;
6918,350;0,07587268;
6916,422;0,07643773;
6914,493;0,07738215;
6912,564;0,0783956;
6910,636;0,07932029;
6908,707;0,08044779;
6906,778;0,08164003;
6904,849;0,08248876;
6902,921;0,08320946;
6900,992;0,08418552;
6899,063;0,0853674;
6897,134;0,08664516;
6895,206;0,08795471;
6893,277;0,08915534;
6891,348;0,09028069;
6889,420;0,0915176;
6887,491;0,09295814;
6885,562;0,09453693;
6883,633;0,0960593;
6881,705;0,09752115;
6879,776;0,09916168;
6877,847;0,1009354;
6875,918;0,1025421;
6873,990;0,1039661;
6872,061;0,1055065;
6870,132;0,1072311;
6868,204;0,1087947;
6866,275;0,1102086;
6864,346;0,1119946;
6862,417;0,1141445;
6860,489;0,1161363;
6858,560;0,1179173;
6856,631;0,1198348;
6854,702;0,1218865;
6852,774;0,1238098;
6850,845;0,1256583;
6848,916;0,1274996;
6846,988;0,1291748;
6845,059;0,1309496;
6843,130;0,1333186;
6841,201;0,1360599;
6839,273;0,138495;
6837,344;0,1404689;
6835,415;0,1422988;
6833,486;0,1441939;
6831,558;0,1461571;
6829,629;0,1481679;
6827,700;0,1503219;
6825,772;0,1525692;
6823,843;0,1547572;
6821,914;0,1568806;
6819,985;0,1588219;
6818,057;0,1606015;
6816,128;0,1624731;
6814,199;0,1643408;
6812,270;0,1659709;
6810,342;0,167508;
6808,413;0,1692027;
6806,484;0,1710815;
6804,555;0,1730369;
6802,627;0,174716;
6800,698;0,1759707;
6798,769;0,1772358;
6796,841;0,1784655;
6794,912;0,179309;
6792,983;0,1801138;
6791,054;0,1811495;
6789,126;0,182166;
6787,197;0,1829197;
6785,268;0,1833674;
6783,339;0,1837684;
6781,411;0,1843846;
6779,482;0,1850844;
6777,553;0,1855418;
6775,625;0,1855426;
6773,696;0,185183;
6771,767;0,1848596;
6769,838;0,1847098;
6767,910;0,1843236;
6765,981;0,1834468;
6764,052;0,182498;
6762,123;0,1818582;
6760,195;0,1812502;
6758,266;0,180335;
6756,337;0,1791882;
6754,409;0,1779982;
6752,480;0,1767641;
6750,551;0,1753174;
6748,622;0,1736782;
6746,694;0,1720493;
6744,765;0,1704598;
6742,836;0,1688629;
6740,907;0,1672572;
6738,979;0,1655424;
6737,050;0,1635732;
6735,121;0,1613661;
6733,193;0,1591318;
6731,264;0,1570942;
6729,335;0,1553126;
6727,406;0,1536291;
6725,478;0,151761;
6723,549;0,1495365;
6721,620;0,147021;
6719,691;0,1445023;
6717,763;0,1423496;
6715,834;0,1404881;
6713,905;0,1384901;
6711,977;0,1363186;
6710,048;0,1341542;
6708,119;0,1320193;
6706,190;0,1300182;
6704,262;0,1281696;
6702,333;0,1261126;
6700,404;0,1236767;
6698,475;0,1212998;
6696,547;0,1193061;
6694,618;0,1175505;
6692,689;0,1158527;
6690,760;0,1140915;
6688,832;0,11223;
6686,903;0,110374;
6684,974;0,1085828;
6683,046;0,1067587;
6681,117;0,1048443;
6679,188;0,1029544;
6677,259;0,1012013;
6675,331;0,09964759;
6673,402;0,09831345;
6671,473;0,09702341;
6669,544;0,09554141;
6667,616;0,09389358;
6665,687;0,09222914;
6663,758;0,09060618;
6661,830;0,08911467;
6659,901;0,08778473;
6657,972;0,08653431;
6656,043;0,08544412;
6654,115;0,08460505;
6652,186;0,08375528;
6650,257;0,08261479;
6648,328;0,08126408;
6646,400;0,07994132;
6644,471;0,07884432;
6642,542;0,07793324;
6640,614;0,07703762;
6638,685;0,07618865;
6636,756;0,07533283;
6634,827;0,07424552;
6632,899;0,07303239;
6630,970;0,07201277;
6629,041;0,07126766;
6627,112;0,07067914;
6625,184;0,07006365;
6623,255;0,06935015;
6621,326;0,06874546;
6619,398;0,06830713;
6617,469;0,06773195;
6615,540;0,0668724;
6613,611;0,06596799;
6611,683;0,0653215;
6609,754;0,06492262;
6607,825;0,06443612;
6605,896;0,06373324;
6603,968;0,06314019;
6602,039;0,06277353;
6600,110;0,06228648;
6598,182;0,0615782;
6596,253;0,06100843;
6594,324;0,06073997;
6592,395;0,06051726;
6590,467;0,06026774;
6588,538;0,06015991;
6586,609;0,06008876;
6584,680;0,05982792;
6582,752;0,05942908;
6580,823;0,05904637;
6578,894;0,05871723;
6576,965;0,05844259;
6575,037;0,05817267;
6573,108;0,05790881;
6571,179;0,05773386;
6569,251;0,05757099;
6567,322;0,05735308;
6565,393;0,05715645;
6563,464;0,05698426;
6561,536;0,05682722;
6559,607;0,05675995;
6557,678;0,05682936;
6555,749;0,05690645;
6553,821;0,0568204;
6551,892;0,05672014;
6549,963;0,05674219;
6548,035;0,05669465;
6546,106;0,05655365;
6544,177;0,05640897;
6542,248;0,05627874;
6540,320;0,05636949;
6538,391;0,05674101;
6536,462;0,05711771;
6534,533;0,05730088;
6532,605;0,05736451;
6530,676;0,05744749;
6528,747;0,05755711;
6526,819;0,0576933;
6524,890;0,05783703;
6522,961;0,05794042;
6521,032;0,05812611;
6519,104;0,05845513;
6517,175;0,05880072;
6515,246;0,05917073;
6513,317;0,05955589;
6511,389;0,05988908;
6509,460;0,06022568;
6507,531;0,06051469;
6505,603;0,06084077;
6503,674;0,06138292;
6501,745;0,06192957;
6499,816;0,0622859;
6497,888;0,06247398;
6495,959;0,06260068;
6494,030;0,06293637;
6492,101;0,06355094;
6490,173;0,06425512;
6488,244;0,06496549;
6486,315;0,06555398;
6484,386;0,0659674;
6482,458;0,06658723;
6480,529;0,06753363;
6478,600;0,06829787;
6476,672;0,06871438;
6474,743;0,06927082;
6472,814;0,07019166;
6470,885;0,07119844;
6468,957;0,07215898;
6467,028;0,0731121;
6465,099;0,07406018;
6463,170;0,07497536;
6461,242;0,0757567;
6459,313;0,07651091;
6457,384;0,07742291;
6455,456;0,0784231;
6453,527;0,07946203;
6451,598;0,08058634;
6449,669;0,08174933;
6447,741;0,08295408;
6445,812;0,08430094;
6443,883;0,08566049;
6441,954;0,08686887;
6440,026;0,08811938;
6438,097;0,08952348;
6436,168;0,09093305;
6434,240;0,0924;
6432,311;0,09400525;
6430,382;0,09551766;
6428,453;0,09691542;
6426,525;0,09846637;
6424,596;0,1000791;
6422,667;0,1016658;
6420,738;0,103471;
6418,810;0,1054353;
6416,881;0,107303;
6414,952;0,1091164;
6413,024;0,1109946;
6411,095;0,1129266;
6409,166;0,1149074;
6407,237;0,1169229;
6405,309;0,1189465;
6403,380;0,1210363;
6401,451;0,1231309;
6399,522;0,1250993;
6397,594;0,1271434;
6395,665;0,1295696;
6393,736;0,1323206;
6391,808;0,1349401;
6389,879;0,1371201;
6387,950;0,1392248;
6386,021;0,1415309;
6384,093;0,1436979;
6382,164;0,145665;
6380,235;0,1478216;
6378,306;0,1502554;
6376,378;0,1527371;
6374,449;0,1551627;
6372,520;0,157586;
6370,591;0,1600037;
6368,663;0,1623194;
6366,734;0,1645219;
6364,805;0,1667023;
6362,877;0,1688726;
6360,948;0,1710476;
6359,019;0,1732203;
6357,090;0,175242;
6355,162;0,1770813;
6353,233;0,1788176;
6351,304;0,1804893;
6349,375;0,1821844;
6347,447;0,1839149;
6345,518;0,1855183;
6343,589;0,1869033;
6341,661;0,1881557;
6339,732;0,1893229;
6337,803;0,190357;
6335,874;0,1912617;
6333,946;0,1921406;
6332,017;0,1930075;
6330,088;0,193711;
6328,159;0,1942217;
6326,231;0,1945764;
6324,302;0,1947226;
6322,373;0,1947163;
6320,445;0,1947188;
6318,516;0,1947556;
6316,587;0,1945548;
6314,658;0,1939828;
6312,730;0,1933162;
6310,801;0,1926392;
6308,872;0,1917513;
6306,943;0,190606;
6305,015;0,1893122;
6303,086;0,1879646;
6301,157;0,1865838;
6299,229;0,1851134;
6297,300;0,1835323;
6295,371;0,1819204;
6293,442;0,1802763;
6291,514;0,1784853;
6289,585;0,1764602;
6287,656;0,1742137;
6285,727;0,1719794;
6283,799;0,1698957;
6281,870;0,1676328;
6279,941;0,1649991;
6278,013;0,1624513;
6276,084;0,1603084;
6274,155;0,1582425;
6272,226;0,155973;
6270,298;0,1535679;
6268,369;0,1510739;
6266,440;0,1484753;
6264,511;0,1458562;
6262,583;0,1432959;
6260,654;0,1407868;
6258,725;0,138395;
6256,796;0,1361224;
6254,868;0,1338192;
6252,939;0,1314397;
6251,010;0,1290068;
6249,082;0,1265121;
6247,153;0,1239947;
6245,224;0,1216261;
6243,295;0,1195637;
6241,367;0,1176799;
6239,438;0,1157084;
6237,509;0,1135614;
6235,580;0,1114083;
6233,652;0,1093673;
6231,723;0,1072939;
6229,794;0,1051621;
6227,866;0,1031927;
6225,937;0,1014624;
6224,008;0,0997228;
6222,079;0,09773239;
6220,151;0,09568284;
6218,222;0,09393031;
6216,293;0,09242339;
6214,364;0,09090433;
6212,436;0,08941753;
6210,507;0,08806108;
6208,578;0,08666161;
6206,650;0,0851704;
6204,721;0,08379276;
6202,792;0,0825419;
6200,863;0,08125326;
6198,935;0,07991385;
6197,006;0,07863818;
6195,077;0,07749294;
6193,148;0,07635085;
6191,220;0,07509141;
6189,291;0,07384314;
6187,362;0,07266521;
6185,434;0,07149435;
6183,505;0,07040094;
6181,576;0,06944232;
6179,647;0,06856739;
6177,719;0,06773773;
6175,790;0,06688887;
6173,861;0,06595223;
6171,932;0,06504773;
6170,004;0,06430756;
6168,075;0,06360287;
6166,146;0,06283693;
6164,218;0,06218459;
6162,289;0,06172229;
6160,360;0,06122525;
6158,431;0,06051306;
6156,503;0,05967753;
6154,574;0,05897645;
6152,645;0,05849841;
6150,716;0,05807907;
6148,788;0,05763433;
6146,859;0,05714994;
6144,930;0,05662209;
6143,001;0,05610159;
6141,073;0,05561486;
6139,144;0,05523679;
6137,215;0,05496815;
6135,287;0,05469812;
6133,358;0,05441428;
6131,429;0,05409993;
6129,500;0,05368469;
6127,572;0,05321669;
6125,643;0,05278962;
6123,714;0,05243073;
6121,785;0,05223614;
6119,857;0,05218226;
6117,928;0,05194739;
6115,999;0,05151772;
6114,071;0,05130226;
6112,142;0,05128378;
6110,213;0,05111185;
6108,284;0,05084331;
6106,356;0,05067406;
6104,427;0,05059334;
6102,498;0,05056009;
6100,569;0,05050996;
6098,641;0,05038134;
6096,712;0,05021553;
6094,783;0,05010923;
6092,855;0,05008482;
6090,926;0,05009398;
6088,997;0,05015877;
6087,068;0,05030769;
6085,140;0,05040407;
6083,211;0,05034823;
6081,282;0,05032369;
6079,353;0,05045653;
6077,425;0,05064841;
6075,496;0,05084577;
6073,567;0,05101483;
6071,639;0,05107031;
6069,710;0,05101469;
6067,781;0,0510219;
6065,852;0,05117624;
6063,924;0,05134098;
6061,995;0,05148812;
6060,066;0,05167163;
6058,137;0,05182226;
6056,209;0,0519319;
6054,280;0,05217904;
6052,351;0,05263779;
6050,423;0,05309262;
6048,494;0,05339373;
6046,565;0,05370176;
6044,636;0,05418829;
6042,708;0,05472953;
6040,779;0,05515408;
6038,850;0,05551577;
6036,921;0,05584618;
6034,993;0,05612958;
6033,064;0,05650896;
6031,135;0,05706241;
6029,206;0,05759295;
6027,278;0,05795259;
6025,349;0,05834432;
6023,420;0,05899575;
6021,492;0,05979551;
6019,563;0,06051664;
6017,634;0,06119572;
6015,705;0,06193673;
6013,777;0,0626446;
6011,848;0,06334832;
6009,919;0,06416722;
6007,990;0,0649715;
6006,062;0,06569841;
6004,133;0,06650987;
6002,204;0,06738955;
6000,276;0,06814918;
5998,347;0,06883981;
5996,418;0,06973759;
5994,489;0,07089718;
5992,561;0,07212709;
5990,632;0,07335538;
5988,703;0,07456145;
5986,774;0,07570513;
5984,846;0,0768993;
5982,917;0,07816713;
5980,988;0,07938673;
5979,060;0,08058816;
5977,131;0,08190889;
5975,202;0,08342288;
5973,273;0,08508602;
5971,345;0,08673754;
5969,416;0,08820711;
5967,487;0,0895934;
5965,558;0,0911721;
5963,630;0,09295231;
5961,701;0,09479693;
5959,772;0,09663353;
5957,844;0,09843548;
5955,915;0,1003187;
5953,986;0,1023847;
5952,057;0,1045394;
5950,129;0,1066767;
5948,200;0,1088673;
5946,271;0,1111292;
5944,342;0,1132841;
5942,414;0,1153025;
5940,485;0,117373;
5938,556;0,1196694;
5936,627;0,1222268;
5934,699;0,1248712;
5932,770;0,1273859;
5930,841;0,1297456;
5928,913;0,1321193;
5926,984;0,1347006;
5925,055;0,13745;
5923,126;0,140109;
5921,198;0,1426002;
5919,269;0,1450786;
5917,340;0,1476161;
5915,411;0,1502194;
5913,483;0,1528942;
5911,554;0,1555868;
5909,625;0,1582324;
5907,697;0,1607211;
5905,768;0,1630015;
5903,839;0,1652632;
5901,910;0,1676459;
5899,982;0,1699925;
5898,053;0,1721889;
5896,124;0,1743301;
5894,195;0,1764581;
5892,267;0,1785239;
5890,338;0,1804645;
5888,409;0,1821617;
5886,481;0,1835984;
5884,552;0,1849467;
5882,623;0,1863197;
5880,694;0,1876275;
5878,766;0,1887096;
5876,837;0,1895551;
5874,908;0,1902912;
5872,979;0,190951;
5871,051;0,1914437;
5869,122;0,1916993;
5867,193;0,1917662;
5865,265;0,1916977;
5863,336;0,1914378;
5861,407;0,1909702;
5859,478;0,1903611;
5857,550;0,1896534;
5855,621;0,1888431;
5853,692;0,1879026;
5851,763;0,186769;
5849,835;0,1854276;
5847,906;0,184001;
5845,977;0,1825319;
5844,049;0,1809232;
5842,120;0,1791284;
5840,191;0,1771779;
5838,262;0,1751307;
5836,334;0,1729887;
5834,405;0,1707196;
5832,476;0,1683632;
5830,547;0,1660093;
5828,619;0,1636837;
5826,690;0,1613121;
5824,761;0,1588147;
5822,832;0,1561828;
5820,904;0,1535013;
5818,975;0,1508591;
5817,046;0,1482947;
5815,118;0,1458007;
5813,189;0,1432916;
5811,260;0,1407197;
5809,331;0,1380834;
5807,403;0,1353706;
5805,474;0,1326574;
5803,545;0,1300628;
5801,616;0,1275653;
5799,688;0,1250321;
5797,759;0,1224646;
5795,830;0,1200057;
5793,902;0,1177009;
5791,973;0,1154566;
5790,044;0,1131876;
5788,115;0,1108426;
5786,187;0,108418;
5784,258;0,1060678;
5782,329;0,1039434;
5780,400;0,1019957;
5778,472;0,1000577;
5776,543;0,09804647;
5774,614;0,09606725;
5772,686;0,094177;
5770,757;0,09229358;
5768,828;0,09043986;
5766,899;0,08868864;
5764,971;0,08700354;
5763,042;0,08535623;
5761,113;0,08374377;
5759,184;0,08209419;
5757,256;0,08045151;
5755,327;0,07894507;
5753,398;0,07750375;
5751,470;0,07607254;
5749,541;0,0747304;
5747,612;0,07346398;
5745,683;0,07223056;
5743,755;0,07097072;
5741,826;0,06965738;
5739,897;0,06848324;
5737,968;0,0675739;
5736,040;0,06675147;
5734,111;0,0658289;
5732,182;0,06475158;
5730,254;0,06359101;
5728,325;0,06257136;
5726,396;0,06176689;
5724,467;0,06093997;
5722,539;0,0599879;
5720,610;0,05910336;
5718,681;0,05834563;
5716,752;0,05763686;
5714,824;0,05699144;
5712,895;0,05636145;
5710,966;0,05566071;
5709,037;0,05490115;
5707,109;0,05417545;
5705,180;0,05361949;
5703,251;0,05320884;
5701,323;0,05279022;
5699,394;0,05231069;
5697,465;0,05179398;
5695,536;0,05129395;
5693,608;0,05084125;
5691,679;0,05039928;
5689,750;0,04995999;
5687,821;0,04954433;
5685,893;0,04912621;
5683,964;0,04871454;
5682,035;0,04836786;
5680,107;0,04804997;
5678,178;0,04766982;
5676,249;0,04726839;
5674,320;0,04697691;
5672,392;0,04674898;
5670,463;0,04646747;
5668,534;0,04622538;
5666,605;0,0460651;
5664,677;0,04586535;
5662,748;0,04561653;
5660,819;0,04541222;
5658,891;0,04528483;
5656,962;0,04516559;
5655,033;0,04498994;
5653,104;0,04479158;
5651,176;0,04465993;
5649,247;0,04457475;
5647,318;0,0444163;
5645,389;0,04423904;
5643,461;0,04416724;
5641,532;0,04419545;
5639,603;0,04428485;
5637,675;0,04434849;
5635,746;0,04434421;
5633,817;0,04434364;
5631,888;0,04435584;
5629,960;0,04434481;
5628,031;0,04434825;
5626,102;0,04440577;
5624,173;0,04446829;
5622,245;0,04449442;
5620,316;0,04456363;
5618,387;0,04473327;
5616,459;0,04490698;
5614,530;0,04502166;
5612,601;0,04514726;
5610,672;0,04528776;
5608,744;0,04540285;
5606,815;0,04553463;
5604,886;0,04568532;
5602,957;0,04585945;
5601,029;0,04612289;
5599,100;0,04642728;
5597,171;0,04673327;
5595,242;0,04712019;
5593,314;0,04749875;
5591,385;0,04771664;
5589,456;0,04788783;
5587,528;0,04817374;
5585,599;0,04857466;
5583,670;0,04902613;
5581,741;0,04945516;
5579,813;0,0498418;
5577,884;0,05024075;
5575,955;0,05072888;
5574,026;0,05131591;
5572,098;0,05188065;
5570,169;0,05233726;
5568,240;0,05278656;
5566,312;0,05333182;
5564,383;0,0539258;
5562,454;0,05455053;
5560,525;0,05524605;
5558,597;0,05595646;
5556,668;0,05663965;
5554,739;0,05731282;
5552,810;0,0579894;
5550,882;0,05871403;
5548,953;0,05952705;
5547,024;0,06046877;
5545,096;0,06150781;
5543,167;0,06245275;
5541,238;0,06324324;
5539,309;0,06410229;
5537,381;0,0651588;
5535,452;0,06628218;
5533,523;0,06738351;
5531,594;0,0684942;
5529,666;0,069589;
5527,737;0,07067522;
5525,808;0,07186;
5523,880;0,07315988;
5521,951;0,07451608;
5520,022;0,07588778;
5518,093;0,07727947;
5516,165;0,07878734;
5514,236;0,08043712;
5512,307;0,08214653;
5510,378;0,08384559;
5508,450;0,08550671;
5506,521;0,08718335;
5504,592;0,08891893;
5502,663;0,09072857;
5500,735;0,09264632;
5498,806;0,0946947;
5496,877;0,0968561;
5494,949;0,09904651;
5493,020;0,1012523;
5491,091;0,1035216;
5489,162;0,1058633;
5487,234;0,1083031;
5485,305;0,1108197;
5483,376;0,1133675;
5481,447;0,1159374;
5479,519;0,1185177;
5477,590;0,1211343;
5475,661;0,1238774;
5473,733;0,126795;
5471,804;0,1297739;
5469,875;0,1326989;
5467,946;0,1356019;
5466,018;0,1385565;
5464,089;0,1415832;
5462,160;0,1446215;
5460,231;0,1476381;
5458,303;0,150648;
5456,374;0,1536358;
5454,445;0,156632;
5452,517;0,1596881;
5450,588;0,1627782;
5448,659;0,1658057;
5446,730;0,1686898;
5444,802;0,1714619;
5442,873;0,1741889;
5440,944;0,1768701;
5439,015;0,1794524;
5437,087;0,1818725;
5435,158;0,184153;
5433,229;0,1863534;
5431,301;0,1884157;
5429,372;0,190301;
5427,443;0,192098;
5425,514;0,1938193;
5423,586;0,1953442;
5421,657;0,1965503;
5419,728;0,1974001;
5417,799;0,197991;
5415,871;0,1984711;
5413,942;0,1988877;
5412,013;0,1991239;
5410,085;0,199071;
5408,156;0,1988206;
5406,227;0,1984133;
5404,298;0,1977351;
5402,370;0,1967801;
5400,441;0,1956111;
5398,512;0,1942773;
5396,583;0,1927964;
5394,655;0,1910923;
5392,726;0,1891522;
5390,797;0,1870696;
5388,868;0,184871;
5386,940;0,1824807;
5385,011;0,1798922;
5383,082;0,1772383;
5381,154;0,1745895;
5379,225;0,1718609;
5377,296;0,169001;
5375,367;0,1660743;
5373,439;0,1630853;
5371,510;0,1600018;
5369,581;0,1568835;
5367,652;0,1537626;
5365,724;0,1506539;
5363,795;0,1475802;
5361,866;0,1444967;
5359,938;0,1413977;
5358,009;0,1383416;
5356,080;0,1353309;
5354,151;0,1323229;
5352,223;0,1293153;
5350,294;0,1263374;
5348,365;0,1234401;
5346,436;0,1206401;
5344,508;0,1178566;
5342,579;0,1150759;
5340,650;0,1123618;
5338,722;0,1097326;
5336,793;0,1071897;
5334,864;0,104697;
5332,935;0,1022273;
5331,007;0,09983045;
5329,078;0,09757198;
5327,149;0,09543229;
5325,220;0,09330054;
5323,292;0,09116653;
5321,363;0,08912344;
5319,434;0,08716195;
5317,506;0,08525074;
5315,577;0,08342711;
5313,648;0,08160844;
5311,719;0,07970271;
5309,791;0,07786479;
5307,862;0,07620522;
5305,933;0,07462123;
5304,004;0,07310303;
5302,076;0,07169937;
5300,147;0,07032387;
5298,218;0,06892217;
5296,290;0,06753274;
5294,361;0,06613801;
5292,432;0,06478507;
5290,503;0,06360196;
5288,575;0,06251625;
5286,646;0,06139628;
5284,717;0,06028564;
5282,788;0,05921824;
5280,860;0,05818518;
5278,931;0,05724608;
5277,002;0,05640078;
5275,073;0,05553661;
5273,145;0,05461318;
5271,216;0,05370258;
5269,287;0,05287425;
5267,359;0,05213363;
5265,430;0,05141672;
5263,501;0,0507052;
5261,572;0,05003271;
5259,644;0,04938756;
5257,715;0,04876181;
5255,786;0,04815288;
5253,857;0,04757496;
5251,929;0,04705256;
5250,000;0,04654961;
5248,071;0,04603568;
5246,143;0,04549314;
5244,214;0,04490886;
5242,285;0,04434834;
5240,356;0,04389058;
5238,428;0,04353287;
5236,499;0,04319941;
5234,570;0,04279613;
5232,641;0,04234136;
5230,713;0,04196685;
5228,784;0,04167788;
5226,855;0,04138018;
5224,927;0,04108097;
5222,998;0,04077312;
5221,069;0,04040852;
5219,140;0,04006025;
5217,212;0,03983143;
5215,283;0,03968486;
5213,354;0,03951737;
5211,425;0,03931529;
5209,497;0,03910577;
5207,568;0,03886826;
5205,639;0,03864654;
5203,711;0,03854316;
5201,782;0,03849137;
5199,853;0,03831169;
5197,924;0,03804108;
5195,996;0,03788695;
5194,067;0,03785927;
5192,138;0,03780059;
5190,209;0,03771134;
5188,281;0,03767215;
5186,352;0,03763074;
5184,423;0,03756608;
5182,495;0,0375435;
5180,566;0,03752165;
5178,637;0,03745445;
5176,708;0,03742252;
5174,780;0,03746343;
5172,851;0,03752717;
5170,922;0,03758842;
5168,993;0,03764821;
5167,065;0,03770437;
5165,136;0,03774539;
5163,207;0,03778256;
5161,278;0,03787835;
5159,350;0,03804281;
5157,421;0,03819956;
5155,492;0,0383307;
5153,564;0,03848332;
5151,635;0,03865159;
5149,706;0,03881132;
5147,777;0,03897817;
5145,849;0,03916286;
5143,920;0,03935466;
5141,991;0,03954213;
5140,062;0,0397382;
5138,134;0,03999803;
5136,205;0,04035094;
5134,276;0,04072473;
5132,348;0,04105645;
5130,419;0,04140444;
5128,490;0,0417959;
5126,561;0,04215318;
5124,633;0,04247962;
5122,704;0,04285752;
5120,775;0,04328327;
5118,846;0,04369988;
5116,918;0,04409603;
5114,989;0,04448603;
5113,060;0,04489535;
5111,132;0,04536239;
5109,203;0,04590628;
5107,274;0,04652253;
5105,345;0,04715542;
5103,417;0,04775059;
5101,488;0,04834951;
5099,559;0,04898944;
5097,630;0,04966174;
5095,702;0,05037143;
5093,773;0,05112234;
5091,844;0,05193225;
5089,916;0,05278648;
5087,987;0,05361094;
5086,058;0,05441008;
5084,129;0,05528712;
5082,201;0,05626165;
5080,272;0,05724226;
5078,343;0,05823306;
5076,414;0,05930439;
5074,486;0,06039758;
5072,557;0,06147588;
5070,628;0,06262605;
5068,700;0,06384297;
5066,771;0,06507061;
5064,842;0,06636487;
5062,913;0,06776303;
5060,985;0,06922626;
5059,056;0,07075706;
5057,127;0,07237664;
5055,198;0,07404424;
5053,270;0,07572193;
5051,341;0,07745741;
5049,412;0,07928628;
5047,483;0,08114865;
5045,555;0,08303533;
5043,626;0,08504007;
5041,697;0,08718621;
5039,769;0,08940346;
5037,840;0,09165773;
5035,911;0,09397321;
5033,982;0,09636172;
5032,054;0,09880915;
5030,125;0,1013476;
5028,196;0,1040057;
5026,267;0,10674;
5024,339;0,1095544;
5022,410;0,1124957;
5020,481;0,1155201;
5018,553;0,1185451;
5016,624;0,121578;
5014,695;0,1246976;
5012,766;0,1279223;
5010,838;0,1312082;
5008,909;0,1345639;
5006,980;0,1380127;
5005,051;0,1414972;
5003,123;0,1449469;
5001,194;0,1483506;
4999,265;0,1517329;
4997,337;0,1551482;
4995,408;0,1586014;
4993,479;0,1619778;
4991,550;0,1651991;
4989,622;0,1683277;
4987,693;0,1714392;
4985,764;0,1745222;
4983,835;0,1775218;
4981,907;0,1803897;
4979,978;0,1830691;
4978,049;0,1855451;
4976,121;0,1878585;
4974,192;0,1899699;
4972,263;0,1918262;
4970,334;0,1935049;
4968,406;0,1950414;
4966,477;0,1963235;
4964,548;0,1972856;
4962,619;0,1979866;
4960,691;0,1984676;
4958,762;0,1986826;
4956,833;0,1986037;
4954,904;0,1982642;
4952,976;0,1976316;
4951,047;0,1966382;
4949,118;0,1953619;
4947,190;0,1939078;
4945,261;0,1922332;
4943,332;0,1903069;
4941,403;0,1881829;
4939,475;0,1858788;
4937,546;0,1833755;
4935,617;0,1806607;
4933,688;0,1777687;
4931,760;0,174768;
4929,831;0,1716561;
4927,902;0,168405;
4925,974;0,1650684;
4924,045;0,1616926;
4922,116;0,1582432;
4920,187;0,1547076;
4918,259;0,1511303;
4916,330;0,147562;
4914,401;0,1440362;
4912,472;0,1405251;
4910,544;0,1369986;
4908,615;0,1334927;
4906,686;0,1300423;
4904,758;0,1266728;
4902,829;0,1233936;
4900,900;0,1201882;
4898,971;0,1170378;
4897,043;0,1139017;
4895,114;0,1107925;
4893,185;0,1077709;
4891,256;0,1048368;
4889,328;0,1019799;
4887,399;0,09921185;
4885,470;0,09652576;
4883,542;0,09389565;
4881,613;0,09130272;
4879,684;0,08881718;
4877,755;0,08652297;
4875,827;0,08432846;
4873,898;0,08210173;
4871,969;0,07989778;
4870,040;0,07782218;
4868,112;0,07585849;
4866,183;0,07396898;
4864,254;0,07217281;
4862,326;0,07044727;
4860,397;0,06871203;
4858,468;0,06695846;
4856,539;0,06528823;
4854,611;0,0637867;
4852,682;0,06240506;
4850,753;0,06101744;
4848,824;0,05958552;
4846,896;0,05820366;
4844,967;0,05695514;
4843,038;0,0558059;
4841,109;0,0546755;
4839,181;0,05354227;
4837,252;0,05246743;
4835,323;0,05148395;
4833,395;0,05052137;
4831,466;0,04952544;
4829,537;0,04853867;
4827,608;0,04764796;
4825,680;0,04687035;
4823,751;0,04610475;
4821,822;0,04528812;
4819,893;0,04448955;
4817,965;0,04377226;
4816,036;0,04309488;
4814,107;0,04241981;
4812,179;0,04177863;
4810,250;0,0411617;
4808,321;0,04052499;
4806,392;0,0398963;
4804,464;0,03932993;
4802,535;0,03882712;
4800,606;0,03837433;
4798,677;0,03796433;
4796,749;0,03754206;
4794,820;0,0370745;
4792,891;0,03661271;
4790,963;0,03619294;
4789,034;0,03581079;
4787,105;0,0354489;
4785,176;0,03508065;
4783,248;0,03470811;
4781,319;0,03437032;
4779,390;0,03409182;
4777,461;0,0338364;
4775,533;0,03356967;
4773,604;0,03331749;
4771,675;0,03307973;
4769,747;0,03280994;
4767,818;0,03251663;
4765,889;0,03224878;
4763,960;0,03203125;
4762,032;0,03186481;
4760,103;0,03169994;
4758,174;0,03149992;
4756,245;0,03131017;
4754,317;0,03115999;
4752,388;0,03101776;
4750,459;0,03086807;
4748,531;0,0307489;
4746,602;0,03065299;
4744,673;0,03052088;
4742,744;0,03039027;
4740,816;0,03033661;
4738,887;0,03033409;
4736,958;0,03030679;
4735,029;0,0302603;
4733,101;0,03023351;
4731,172;0,03017321;
4729,243;0,03007199;
4727,314;0,03001151;
4725,386;0,03001161;
4723,457;0,03003304;
4721,528;0,03005463;
4719,600;0,03010129;
4717,671;0,03017765;
4715,742;0,03025706;
4713,813;0,03032753;
4711,885;0,03038192;
4709,956;0,03043481;
4708,027;0,03050002;
4706,098;0,03058453;
4704,170;0,03069726;
4702,241;0,03082987;
4700,312;0,03097646;
4698,384;0,03112925;
4696,455;0,03129942;
4694,526;0,03149548;
4692,597;0,03167035;
4690,669;0,03182273;
4688,740;0,03200274;
4686,811;0,03217858;
4684,882;0,03231836;
4682,954;0,03247827;
4681,025;0,03269301;
4679,096;0,03296304;
4677,168;0,03327921;
4675,239;0,03359142;
4673,310;0,03387691;
4671,381;0,03418432;
4669,453;0,03453937;
4667,524;0,0348895;
4665,595;0,03521458;
4663,666;0,03556406;
4661,738;0,03596402;
4659,809;0,03640066;
4657,880;0,03684554;
4655,952;0,03729368;
4654,023;0,03775419;
4652,094;0,03823349;
4650,165;0,03876616;
4648,237;0,03933341;
4646,308;0,03987074;
4644,379;0,04040702;
4642,450;0,04100653;
4640,522;0,04167661;
4638,593;0,04240906;
4636,664;0,04317102;
4634,736;0,04392234;
4632,807;0,04469358;
4630,878;0,04551295;
4628,949;0,04634566;
4627,021;0,0471896;
4625,092;0,04807205;
4623,163;0,04899411;
4621,234;0,04998697;
4619,306;0,05107157;
4617,377;0,05217635;
4615,448;0,05326318;
4613,519;0,05440793;
4611,591;0,05565073;
4609,662;0,05692609;
4607,733;0,05820458;
4605,805;0,05955724;
4603,876;0,06103925;
4601,947;0,06262989;
4600,018;0,06426846;
4598,090;0,06592146;
4596,161;0,06762455;
4594,232;0,06941146;
4592,303;0,07129689;
4590,375;0,07329904;
4588,446;0,07537938;
4586,517;0,07750706;
4584,589;0,07972039;
4582,660;0,08203314;
4580,731;0,08445237;
4578,802;0,08699839;
4576,874;0,08965796;
4574,945;0,09245462;
4573,016;0,09541481;
4571,087;0,09846459;
4569,159;0,1015295;
4567,230;0,1046363;
4565,301;0,1078628;
4563,373;0,1112415;
4561,444;0,1147206;
4559,515;0,1182579;
4557,586;0,1218902;
4555,658;0,1256155;
4553,729;0,1293799;
4551,800;0,1332089;
4549,871;0,1371372;
4547,943;0,141108;
4546,014;0,1450528;
4544,085;0,148959;
4542,157;0,1528663;
4540,228;0,1567973;
4538,299;0,1606916;
4536,370;0,1644745;
4534,442;0,1681326;
4532,513;0,1716943;
4530,584;0,1751773;
4528,655;0,1785326;
4526,727;0,1816781;
4524,798;0,1845763;
4522,869;0,187221;
4520,940;0,1896227;
4519,012;0,1917902;
4517,083;0,1936989;
4515,154;0,1952908;
4513,226;0,1965022;
4511,297;0,1973501;
4509,368;0,197899;
4507,439;0,1981245;
4505,511;0,1979504;
4503,582;0,197373;
4501,653;0,1964643;
4499,724;0,1952684;
4497,796;0,1937334;
4495,867;0,1918213;
4493,938;0,1896;
4492,010;0,1871016;
4490,081;0,1843015;
4488,152;0,1812384;
4486,223;0,1779464;
4484,295;0,1744532;
4482,366;0,1708114;
4480,437;0,167022;
4478,508;0,1630899;
4476,580;0,1590704;
4474,651;0,1550086;
4472,722;0,1509069;
4470,794;0,1467521;
4468,865;0,1425878;
4466,936;0,1384743;
4465,007;0,1344064;
4463,079;0,1303511;
4461,150;0,1263041;
4459,221;0,1223094;
4457,292;0,1184332;
4455,364;0,1146939;
4453,435;0,1110493;
4451,506;0,1074524;
4449,578;0,1039109;
4447,649;0,1004837;
4445,720;0,09720799;
4443,791;0,09407528;
4441,863;0,09104378;
4439,934;0,08805586;
4438,005;0,08513577;
4436,076;0,08237135;
4434,148;0,07974581;
4432,219;0,07719662;
4430,290;0,0747502;
4428,362;0,07241326;
4426,433;0,07015148;
4424,504;0,06798308;
4422,575;0,0659275;
4420,647;0,06396838;
4418,718;0,06206911;
4416,789;0,06022043;
4414,860;0,05847727;
4412,932;0,05685281;
4411,003;0,05529397;
4409,074;0,05379281;
4407,145;0,05234827;
4405,217;0,05093009;
4403,288;0,04957849;
4401,359;0,0483251;
4399,431;0,04712462;
4397,502;0,04597622;
4395,573;0,04489015;
4393,644;0,04383067;
4391,716;0,04277544;
4389,787;0,04174118;
4387,858;0,04075973;
4385,929;0,03984556;
4384,001;0,03902166;
4382,072;0,03827601;
4380,143;0,03754829;
4378,215;0,03681723;
4376,286;0,03608399;
4374,357;0,03537707;
4372,428;0,03473735;
4370,500;0,03414027;
4368,571;0,03355778;
4366,642;0,03300583;
4364,713;0,03248263;
4362,785;0,03198007;
4360,856;0,03151283;
4358,927;0,03107774;
4356,999;0,03064702;
4355,070;0,03018796;
4353,141;0,02971099;
4351,212;0,02927205;
4349,284;0,02888481;
4347,355;0,02852357;
4345,426;0,02817239;
4343,497;0,02785552;
4341,569;0,02758033;
4339,640;0,02727991;
4337,711;0,02695008;
4335,783;0,02663886;
4333,854;0,02633763;
4331,925;0,02605023;
4329,996;0,02578582;
4328,068;0,02553497;
4326,139;0,0253056;
4324,210;0,02508546;
4322,281;0,02486367;
4320,353;0,02465307;
4318,424;0,02443536;
4316,495;0,024201;
4314,567;0,02396513;
4312,638;0,02373515;
4310,709;0,02356428;
4308,780;0,02347629;
4306,852;0,02338457;
4304,923;0,02324656;
4302,994;0,02311778;
4301,065;0,02302055;
4299,137;0,02292471;
4297,208;0,02281007;
4295,279;0,02267899;
4293,350;0,02255409;
4291,422;0,02245586;
4289,493;0,02238895;
4287,564;0,02233426;
4285,636;0,02225659;
4283,707;0,02218547;
4281,778;0,0221843;
4279,849;0,02221273;
4277,921;0,02217622;
4275,992;0,02209178;
4274,063;0,02205784;
4272,134;0,02209016;
4270,206;0,02210945;
4268,277;0,02208388;
4266,348;0,02208956;
4264,420;0,02215973;
4262,491;0,02222246;
4260,562;0,02225129;
4258,633;0,02227945;
4256,705;0,02232003;
4254,776;0,02237351;
4252,847;0,02245199;
4250,918;0,02257369;
4248,990;0,0227273;
4247,061;0,02288099;
4245,132;0,02299845;
4243,204;0,02305599;
4241,275;0,02311041;
4239,346;0,02324173;
4237,417;0,0234173;
4235,489;0,02355956;
4233,560;0,02368571;
4231,631;0,02384575;
4229,702;0,0240297;
4227,774;0,0242167;
4225,845;0,02440773;
4223,916;0,02459744;
4221,988;0,024776;
4220,059;0,02494725;
4218,130;0,02514336;
4216,201;0,02540272;
4214,273;0,02571202;
4212,344;0,02602008;
4210,415;0,02631758;
4208,486;0,02664911;
4206,558;0,02702744;
4204,629;0,02739605;
4202,700;0,02772832;
4200,772;0,02807619;
4198,843;0,02846589;
4196,914;0,02887966;
4194,985;0,02932518;
4193,057;0,02978704;
4191,128;0,03023572;
4189,199;0,03068861;
4187,270;0,03116192;
4185,342;0,03165897;
4183,413;0,03218009;
4181,484;0,03272896;
4179,555;0,03331479;
4177,627;0,03393843;
4175,698;0,03462912;
4173,769;0,03540059;
4171,841;0,03618865;
4169,912;0,03694477;
4167,983;0,03771145;
4166,054;0,03853313;
4164,126;0,03940079;
4162,197;0,0403044;
4160,268;0,04123532;
4158,339;0,04220216;
4156,411;0,04322171;
4154,482;0,04428114;
4152,553;0,0453998;
4150,625;0,04661435;
4148,696;0,04790895;
4146,767;0,04924841;
4144,838;0,0506402;
4142,910;0,05211839;
4140,981;0,05367283;
4139,052;0,05528767;
4137,123;0,05698976;
4135,195;0,05878137;
4133,266;0,06065072;
4131,337;0,06262362;
4129,409;0,06470808;
4127,480;0,06688481;
4125,551;0,06916266;
4123,622;0,07156909;
4121,694;0,07411938;
4119,765;0,0768021;
4117,836;0,07959232;
4115,907;0,08248116;
4113,979;0,08549074;
4112,050;0,08866637;
4110,121;0,09201499;
4108,193;0,0954826;
4106,264;0,09903188;
4104,335;0,1026844;
4102,406;0,1064753;
4100,478;0,110409;
4098,549;0,1144693;
4096,620;0,1186238;
4094,691;0,1228222;
4092,763;0,1270483;
4090,834;0,1313051;
4088,905;0,1355492;
4086,977;0,139761;
4085,048;0,1439595;
4083,119;0,1481226;
4081,190;0,1522081;
4079,262;0,1561629;
4077,333;0,1599517;
4075,404;0,163601;
4073,475;0,1670863;
4071,547;0,1703126;
4069,618;0,1732592;
4067,689;0,1759263;
4065,760;0,1782261;
4063,832;0,1800821;
4061,903;0,1814751;
4059,974;0,1823922;
4058,046;0,1828298;
4056,117;0,1827864;
4054,188;0,1822799;
4052,259;0,1813597;
4050,331;0,180044;
4048,402;0,1783196;
4046,473;0,1761993;
4044,544;0,1737076;
4042,616;0,1708662;
4040,687;0,1677133;
4038,758;0,1643176;
4036,830;0,160759;
4034,901;0,1570368;
4032,972;0,1530992;
4031,043;0,1489601;
4029,115;0,1446536;
4027,186;0,1402006;
4025,257;0,1356771;
4023,328;0,1311821;
4021,400;0,1267282;
4019,471;0,1222925;
4017,542;0,1179313;
4015,614;0,113693;
4013,685;0,1095624;
4011,756;0,1055371;
4009,827;0,1016208;
4007,899;0,09781157;
4005,970;0,09411059;
4004,041;0,09051761;
4002,112;0,0870404;
4000,184;0,08369531;
3998,255;0,08050729;
3996,326;0,07747477;
3994,398;0,07454053;
3992,469;0,07167492;
3990,540;0,06892662;
3988,611;0,06631444;
3986,683;0,06381161;
3984,754;0,06144636;
3982,825;0,05923114;
3980,896;0,05710059;
3978,968;0,05502665;
3977,039;0,0530314;
3975,110;0,05111416;
3973,181;0,04929359;
3971,253;0,04763389;
3969,324;0,04612838;
3967,395;0,04467288;
3965,467;0,04323965;
3963,538;0,0418807;
3961,609;0,04057685;
3959,680;0,03931763;
3957,752;0,03815854;
3955,823;0,03709427;
3953,894;0,03606046;
3951,965;0,0350319;
3950,037;0,03406383;
3948,108;0,03319284;
3946,179;0,03235963;
3944,251;0,03156102;
3942,322;0,03084376;
3940,393;0,03016894;
3938,464;0,02947594;
3936,536;0,02874024;
3934,607;0,028006;
3932,678;0,0273537;
3930,749;0,02677819;
3928,821;0,02622557;
3926,892;0,02570222;
3924,963;0,02524487;
3923,035;0,02479926;
3921,106;0,02428253;
3919,177;0,02374134;
3917,248;0,02324097;
3915,320;0,02277836;
3913,391;0,02239029;
3911,462;0,02207763;
3909,533;0,0217407;
3907,605;0,02136971;
3905,676;0,02105283;
3903,747;0,02076155;
3901,819;0,02040484;
3899,890;0,0200297;
3897,961;0,01973661;
3896,032;0,01949299;
3894,104;0,01921783;
3892,175;0,0189468;
3890,246;0,01872773;
3888,317;0,01848617;
3886,389;0,0181889;
3884,460;0,0179489;
3882,531;0,01781553;
3880,603;0,01769535;
3878,674;0,01751733;
3876,745;0,01729899;
3874,816;0,01710111;
3872,888;0,01696087;
3870,959;0,01683502;
3869,030;0,01666491;
3867,101;0,0164839;
3865,173;0,01636605;
3863,244;0,01630527;
3861,315;0,0162362;
3859,386;0,0161299;
3857,458;0,01598293;
3855,529;0,01578502;
3853,600;0,01559813;
3851,672;0,01551157;
3849,743;0,01547331;
3847,814;0,01541756;
3845,885;0,0154177;
3843,957;0,01548686;
3842,028;0,01552651;
3840,099;0,01548627;
3838,170;0,0153548;
3836,242;0,0151836;
3834,313;0,01507318;
3832,384;0,01503239;
3830,456;0,01503331;
3828,527;0,01506509;
3826,598;0,01508342;
3824,669;0,01506792;
3822,741;0,01504087;
3820,812;0,01502741;
3818,883;0,01504125;
3816,954;0,01504255;
3815,026;0,01502401;
3813,097;0,01506899;
3811,168;0,01517178;
3809,240;0,0152393;
3807,311;0,0152493;
3805,382;0,01525091;
3803,453;0,01529828;
3801,525;0,01538113;
3799,596;0,01546519;
3797,667;0,0155298;
3795,738;0,01555627;
3793,810;0,01559437;
3791,881;0,01568394;
3789,952;0,01578441;
3788,024;0,01588109;
3786,095;0,01598775;
3784,166;0,01607819;
3782,237;0,01613544;
3780,309;0,01622967;
3778,380;0,01640441;
3776,451;0,01659059;
3774,522;0,01676296;
3772,594;0,01696054;
3770,665;0,01717357;
3768,736;0,01737289;
3766,808;0,01755957;
3764,879;0,01773957;
3762,950;0,01792107;
3761,021;0,0181308;
3759,093;0,01837825;
3757,164;0,01860891;
3755,235;0,01878984;
3753,306;0,01899362;
3751,378;0,01927284;
3749,449;0,01957117;
3747,520;0,01983318;
3745,591;0,02010981;
3743,663;0,02048226;
3741,734;0,02091282;
3739,805;0,02131697;
3737,877;0,02170103;
3735,948;0,02210501;
3734,019;0,02253885;
3732,090;0,02300827;
3730,162;0,02351308;
3728,233;0,02403538;
3726,304;0,0245751;
3724,375;0,02513853;
3722,447;0,02571454;
3720,518;0,0263188;
3718,589;0,02698128;
3716,661;0,02768899;
3714,732;0,02839353;
3712,803;0,02910091;
3710,874;0,02989131;
3708,946;0,03078256;
3707,017;0,03171418;
3705,088;0,03265837;
3703,159;0,03364078;
3701,231;0,03469343;
3699,302;0,03581052;
3697,373;0,0369708;
3695,445;0,03817213;
3693,516;0,0394136;
3691,587;0,04068698;
3689,658;0,0420264;
3687,730;0,0435018;
3685,801;0,04510613;
3683,872;0,04677799;
3681,943;0,04849964;
3680,015;0,05026893;
3678,086;0,0520961;
3676,157;0,05405438;
3674,229;0,05618418;
3672,300;0,05841679;
3670,371;0,06074482;
3668,442;0,06322006;
3666,514;0,06580502;
3664,585;0,06847064;
3662,656;0,07123268;
3660,727;0,07407088;
3658,799;0,0769431;
3656,870;0,07986519;
3654,941;0,08289362;
3653,013;0,08597618;
3651,084;0,08904645;
3649,155;0,09219318;
3647,226;0,09547251;
3645,298;0,09877759;
3643,369;0,1020176;
3641,440;0,1051732;
3639,511;0,1082307;
3637,583;0,1111913;
3635,654;0,1140369;
3633,725;0,1167074;
3631,796;0,1191138;
3629,868;0,1212947;
3627,939;0,1234444;
3626,010;0,1255341;
3624,082;0,1273255;
3622,153;0,1287193;
3620,224;0,129793;
3618,295;0,1306725;
3616,367;0,1313359;
3614,438;0,1316652;
3612,509;0,1316426;
3610,580;0,1313022;
3608,652;0,1306842;
3606,723;0,1298081;
3604,794;0,1286139;
3602,866;0,1270449;
3600,937;0,1251431;
3599,008;0,1229768;
3597,079;0,12056;
3595,151;0,1179007;
3593,222;0,1150314;
3591,293;0,1119676;
3589,364;0,1087147;
3587,436;0,1053618;
3585,507;0,1020161;
3583,578;0,0986522;
3581,650;0,09522166;
3579,721;0,09174978;
3577,792;0,08826561;
3575,863;0,08481535;
3573,935;0,08145113;
3572,006;0,07815869;
3570,077;0,07491074;
3568,148;0,07174465;
3566,220;0,06871582;
3564,291;0,06581336;
3562,362;0,06298383;
3560,434;0,06024296;
3558,505;0,05765926;
3556,576;0,05522526;
3554,647;0,05287256;
3552,719;0,05059311;
3550,790;0,04843669;
3548,861;0,04640929;
3546,932;0,0444782;
3545,004;0,04264173;
3543,075;0,04091481;
3541,146;0,03929154;
3539,217;0,0377556;
3537,289;0,03630928;
3535,360;0,03494823;
3533,431;0,03363894;
3531,503;0,03237681;
3529,574;0,03118982;
3527,645;0,0300813;
3525,716;0,02903314;
3523,788;0,02804068;
3521,859;0,0271048;
3519,930;0,02621384;
3518,001;0,02537482;
3516,073;0,02459135;
3514,144;0,02383881;
3512,215;0,02312583;
3510,287;0,02246821;
3508,358;0,02184794;
3506,429;0,02125269;
3504,500;0,02067315;
3502,572;0,02010163;
3500,643;0,01955803;
3498,714;0,01906704;
3496,785;0,01860535;
3494,857;0,01814091;
3492,928;0,01769658;
3490,999;0,01729248;
3489,071;0,01691372;
3487,142;0,01653651;
3485,213;0,01614979;
3483,284;0,01577477;
3481,356;0,01542195;
3479,427;0,01508571;
3477,498;0,01478014;
3475,569;0,01451164;
3473,641;0,01425358;
3471,712;0,01398029;
3469,783;0,01370698;
3467,855;0,01345202;
3465,926;0,01321251;
3463,997;0,01298595;
3462,068;0,01276076;
3460,140;0,0125343;
3458,211;0,0123245;
3456,282;0,01214167;
3454,353;0,01197132;
3452,425;0,0117925;
3450,496;0,01161589;
3448,567;0,01145321;
3446,639;0,01129611;
3444,710;0,01115404;
3442,781;0,01102708;
3440,852;0,01089249;
3438,924;0,01075472;
3436,995;0,01062685;
3435,066;0,01050397;
3433,137;0,01039645;
3431,209;0,01030026;
3429,280;0,01018525;
3427,351;0,01006146;
3425,422;0,009950931;
3423,494;0,009847959;
3421,565;0,009753233;
3419,636;0,009665956;
3417,708;0,009579932;
3415,779;0,009501191;
3413,850;0,00942631;
3411,921;0,009349082;
3409,993;0,00929006;
3408,064;0,009262078;
3406,135;0,009238837;
3404,206;0,009202334;
3402,278;0,009171463;
3400,349;0,009151298;
3398,420;0,009130262;
3396,492;0,009124363;
3394,563;0,009132109;
3392,634;0,00911915;
3390,705;0,009080661;
3388,777;0,009039658;
3386,848;0,009014544;
3384,919;0,009004178;
3382,990;0,009006369;
3381,062;0,009035861;
3379,133;0,009089096;
3377,204;0,009143375;
3375,276;0,009186603;
3373,347;0,009210776;
3371,418;0,009211538;
3369,489;0,009201096;
3367,561;0,009203332;
3365,632;0,009223478;
3363,703;0,00923567;
3361,774;0,009235215;
3359,846;0,009244476;
3357,917;0,009260688;
3355,988;0,009278176;
3354,060;0,00930683;
3352,131;0,009344895;
3350,202;0,009398106;
3348,273;0,009472041;
3346,345;0,009542019;
3344,416;0,009590378;
3342,487;0,009628173;
3340,558;0,009663003;
3338,630;0,009709779;
3336,701;0,009792015;
3334,772;0,009878367;
3332,844;0,009925966;
3330,915;0,00996994;
3328,986;0,01005062;
3327,057;0,01014658;
3325,129;0,01023301;
3323,200;0,01031263;
3321,271;0,0103995;
3319,342;0,01051064;
3317,414;0,01064967;
3315,485;0,01079375;
3313,556;0,01092275;
3311,627;0,01105424;
3309,699;0,01120483;
3307,770;0,01136156;
3305,841;0,0115223;
3303,913;0,01169411;
3301,984;0,01187103;
3300,055;0,01205832;
3298,126;0,01226521;
3296,198;0,01247181;
3294,269;0,01266828;
3292,340;0,01288216;
3290,411;0,01311993;
3288,483;0,01336996;
3286,554;0,01363972;
3284,625;0,01392113;
3282,697;0,01419603;
3280,768;0,01447386;
3278,839;0,01478079;
3276,910;0,01513262;
3274,982;0,01551245;
3273,053;0,01589113;
3271,124;0,01627419;
3269,195;0,016682;
3267,267;0,01710857;
3265,338;0,01755114;
3263,409;0,01802996;
3261,481;0,01855201;
3259,552;0,0191044;
3257,623;0,01968002;
3255,694;0,02027321;
3253,766;0,02088003;
3251,837;0,0215321;
3249,908;0,02225961;
3247,979;0,02303316;
3246,051;0,02383593;
3244,122;0,02469668;
3242,193;0,02561642;
3240,265;0,02659128;
3238,336;0,02764411;
3236,407;0,02878097;
3234,478;0,02998722;
3232,550;0,03125307;
3230,621;0,0326025;
3228,692;0,03406073;
3226,763;0,03559966;
3224,835;0,03720814;
3222,906;0,03894054;
3220,977;0,04084288;
3219,049;0,04290576;
3217,120;0,04510631;
3215,191;0,04744821;
3213,262;0,04993656;
3211,334;0,0525717;
3209,405;0,05537887;
3207,476;0,05838905;
3205,547;0,06159306;
3203,619;0,06495784;
3201,690;0,06848589;
3199,761;0,07219089;
3197,832;0,07602385;
3195,904;0,07991969;
3193,975;0,08388961;
3192,046;0,08795152;
3190,118;0,09202832;
3188,189;0,09602302;
3186,260;0,09990053;
3184,331;0,1036317;
3182,403;0,1071427;
3180,474;0,1103514;
3178,545;0,1132063;
3176,616;0,1156693;
3174,688;0,1176823;
3172,759;0,1191763;
3170,830;0,1201185;
3168,902;0,1205079;
3166,973;0,1203269;
3165,044;0,1195578;
3163,115;0,1181991;
3161,187;0,1162458;
3159,258;0,1137448;
3157,329;0,1108098;
3155,400;0,1075187;
3153,472;0,1039046;
3151,543;0,1000258;
3149,614;0,09595554;
3147,686;0,09176356;
3145,757;0,08752719;
3143,828;0,08330886;
3141,899;0,07914095;
3139,971;0,07504577;
3138,042;0,07105139;
3136,113;0,06718851;
3134,184;0,06348085;
3132,256;0,05994002;
3130,327;0,05656912;
3128,398;0,05337137;
3126,470;0,0503527;
3124,541;0,04751825;
3122,612;0,0448644;
3120,683;0,04237161;
3118,755;0,04002339;
3116,826;0,03782592;
3114,897;0,03577727;
3112,968;0,03385708;
3111,040;0,03206679;
3109,111;0,03041839;
3107,182;0,02888738;
3105,253;0,02743213;
3103,325;0,02605089;
3101,396;0,02476384;
3099,467;0,02357249;
3097,539;0,02247857;
3095,610;0,02146588;
3093,681;0,02049523;
3091,752;0,01957011;
3089,824;0,01872039;
3087,895;0,01794606;
3085,966;0,01722761;
3084,037;0,01654731;
3082,109;0,01590903;
3080,180;0,01532566;
3078,251;0,01477125;
3076,323;0,01421321;
3074,394;0,01367061;
3072,465;0,0131769;
3070,536;0,0127357;
3068,608;0,01233134;
3066,679;0,01194867;
3064,750;0,01158085;
3062,821;0,01122424;
3060,893;0,01089064;
3058,964;0,01059821;
3057,035;0,01032428;
3055,107;0,01004213;
3053,178;0,009772981;
3051,249;0,009515861;
3049,320;0,00924364;
3047,392;0,008976807;
3045,463;0,008741063;
3043,534;0,008534121;
3041,605;0,008350844;
3039,677;0,008176686;
3037,748;0,007996884;
3035,819;0,007815014;
3033,891;0,007648786;
3031,962;0,007491893;
3030,033;0,007317716;
3028,104;0,007149759;
3026,176;0,007026412;
3024,247;0,006923897;
3022,318;0,006807385;
3020,389;0,006685768;
3018,461;0,006570975;
3016,532;0,00645604;
3014,603;0,006355438;
3012,675;0,006290913;
3010,746;0,006235202;
3008,817;0,006149055;
3006,888;0,006047766;
3004,960;0,005965767;
3003,031;0,005899904;
3001,102;0,005836567;
2999,173;0,005781006;
2997,245;0,005739769;
2995,316;0,005714442;
2993,387;0,00569301;
2991,458;0,005658763;
2989,530;0,005615762;
2987,601;0,005580849;
2985,672;0,005565844;
2983,744;0,00555965;
2981,815;0,005547871;
2979,886;0,005539364;
2977,957;0,005522987;
2976,029;0,005452945;
2974,100;0,005317745;
2972,171;0,005147108;
2970,242;0,004937816;
2968,314;0,004652308;
2966,385;0,004280894;
2964,456;0,003866652;
2962,528;0,003473848;
2960,599;0,00313147;
2958,670;0,002841028;
2956,741;0,002601538;
2954,813;0,00239446;
2952,884;0,00219635;
2950,955;0,002003632;
2949,026;0,001817985;
2947,098;0,001625685;
2945,169;0,001438506;
2943,240;0,001305343;
2941,312;0,001231189;
2939,383;0,001189927;
2937,454;0,001187948;
2935,525;0,001230683;
2933,597;0,001319288;
2931,668;0,001471982;
2929,739;0,001681572;
2927,810;0,001928414;
2925,882;0,002213503;
2923,953;0,00252099;
2922,024;0,002806548;
2920,096;0,00305911;
2918,167;0,003310263;
2916,238;0,00355126;
2914,309;0,003728056;
2912,381;0,003834583;
2910,452;0,003905466;
2908,523;0,003956248;
2906,594;0,003992849;
2904,666;0,00401395;
2902,737;0,004024259;
2900,808;0,004042347;
2898,880;0,004062867;
2896,951;0,004078376;
2895,022;0,004104783;
2893,093;0,004137899;
2891,165;0,004151282;
2889,236;0,004139068;
2887,307;0,004127497;
2885,378;0,004134702;
2883,450;0,004137894;
2881,521;0,004109784;
2879,592;0,004055586;
2877,663;0,003983615;
2875,735;0,003892563;
2873,806;0,003777538;
2871,877;0,003604744;
2869,949;0,003350605;
2868,020;0,003065433;
2866,091;0,002835191;
2864,162;0,002707327;
2862,234;0,002672049;
2860,305;0,002713681;
2858,376;0,002850104;
2856,447;0,003086452;
2854,519;0,003372353;
2852,590;0,003648752;
2850,661;0,003888118;
2848,733;0,004075642;
2846,804;0,0042201;
2844,875;0,004338434;
2842,946;0,004423031;
2841,018;0,004488893;
2839,089;0,004561454;
2837,160;0,004640903;
2835,231;0,004727918;
2833,303;0,00481325;
2831,374;0,004891489;
2829,445;0,004965872;
2827,517;0,005027251;
2825,588;0,005090654;
2823,659;0,00517547;
2821,730;0,005258561;
2819,802;0,005320892;
2817,873;0,005388215;
2815,944;0,005491063;
2814,015;0,0056133;
2812,087;0,005725514;
2810,158;0,005840326;
2808,229;0,005982913;
2806,301;0,006145406;
2804,372;0,00630936;
2802,443;0,006474705;
2800,514;0,006632668;
2798,586;0,006769728;
2796,657;0,006908939;
2794,728;0,007077402;
2792,799;0,00726528;
2790,871;0,007457281;
2788,942;0,007657554;
2787,013;0,007871157;
2785,085;0,008108998;
2783,156;0,008387672;
2781,227;0,008682339;
2779,298;0,008964143;
2777,370;0,009264996;
2775,441;0,009605202;
2773,512;0,009954705;
2771,583;0,01030939;
2769,655;0,01070148;
2767,726;0,01113963;
2765,797;0,01160588;
2763,868;0,01209169;
2761,940;0,01259635;
2760,011;0,01312002;
2758,082;0,01367736;
2756,154;0,0142949;
2754,225;0,01499323;
2752,296;0,01577697;
2750,367;0,01664397;
2748,439;0,01758718;
2746,510;0,01858668;
2744,581;0,0196417;
2742,652;0,02078572;
2740,724;0,02204065;
2738,795;0,02341253;
2736,866;0,02491845;
2734,938;0,02656857;
2733,009;0,02836129;
2731,080;0,03030802;
2729,151;0,03244713;
2727,223;0,03482158;
2725,294;0,03744143;
2723,365;0,04030158;
2721,436;0,04339853;
2719,508;0,04671497;
2717,579;0,05023992;
2715,650;0,05398449;
2713,722;0,05795144;
2711,793;0,06210586;
2709,864;0,06638541;
2707,935;0,07071291;
2706,007;0,07499564;
2704,078;0,07913928;
2702,149;0,08303407;
2700,220;0,08654261;
2698,292;0,08954242;
2696,363;0,09194358;
2694,434;0,09366378;
2692,506;0,0946051;
2690,577;0,09463207;
2688,648;0,09360079;
2686,719;0,09143889;
2684,791;0,08819599;
2682,862;0,08408096;
2680,933;0,07949682;
2679,004;0,07497717;
2677,076;0,07096415;
2675,147;0,06758514;
2673,218;0,06468214;
2671,290;0,06208894;
2669,361;0,05983097;
2667,432;0,05794732;
2665,503;0,05619971;
2663,575;0,05418951;
2661,646;0,05171232;
2659,717;0,04884153;
2657,788;0,04578113;
2655,860;0,04274764;
2653,931;0,03989191;
2652,002;0,0372732;
2650,073;0,03489839;
2648,145;0,03273796;
2646,216;0,03073862;
2644,287;0,0288675;
2642,359;0,02712244;
2640,430;0,02548556;
2638,501;0,02391708;
2636,572;0,02241465;
2634,644;0,02100743;
2632,715;0,01970759;
2630,786;0,01850969;
2628,857;0,01740437;
2626,929;0,01639616;
2625,000;0,01549404;
2623,071;0,01467582;
2621,143;0,01391541;
2619,214;0,0132241;
2617,285;0,01261214;
2615,356;0,01203916;
2613,428;0,01146098;
2611,499;0,01091619;
2609,570;0,01047474;
2607,641;0,01011399;
2605,713;0,009749666;
2603,784;0,009354932;
2601,855;0,008974436;
2599,927;0,008638219;
2597,998;0,008333728;
2596,069;0,00804613;
2594,140;0,007762704;
2592,212;0,007487778;
2590,283;0,007239289;
2588,354;0,007015001;
2586,425;0,006802925;
2584,497;0,006587736;
2582,568;0,006365742;
2580,639;0,006149576;
2578,711;0,005950494;
2576,782;0,005786593;
2574,853;0,005656437;
2572,924;0,005523376;
2570,996;0,005367703;
2569,067;0,005217255;
2567,138;0,005097467;
2565,209;0,004985777;
2563,281;0,004868078;
2561,352;0,004769158;
2559,423;0,00468883;
2557,494;0,004598753;
2555,566;0,004499867;
2553,637;0,004408074;
2551,708;0,004311397;
2549,780;0,004204647;
2547,851;0,004116124;
2545,922;0,00405302;
2543,993;0,003988856;
2542,065;0,003915728;
2540,136;0,003840487;
2538,207;0,003767068;
2536,278;0,00371159;
2534,350;0,003671184;
2532,421;0,003618039;
2530,492;0,003548393;
2528,564;0,003482667;
2526,635;0,003439485;
2524,706;0,003410837;
2522,777;0,003367272;
2520,849;0,003308215;
2518,920;0,003259902;
2516,991;0,00321989;
2515,062;0,003178235;
2513,134;0,003150292;
2511,205;0,003124353;
2509,276;0,003082633;
2507,348;0,003053284;
2505,419;0,003048951;
2503,490;0,00304343;
2501,561;0,003021255;
2499,633;0,002999094;
2497,704;0,002982904;
2495,775;0,002948807;
2493,846;0,002912325;
2491,918;0,00289087;
2489,989;0,002865588;
2488,060;0,002853762;
2486,132;0,002860487;
2484,203;0,002858201;
2482,274;0,002853609;
2480,345;0,002848297;
2478,417;0,002825201;
2476,488;0,002788337;
2474,559;0,002754855;
2472,630;0,002740735;
2470,702;0,002745335;
2468,773;0,002751319;
2466,844;0,002750489;
2464,916;0,002750997;
2462,987;0,002762113;
2461,058;0,002769323;
2459,129;0,00275349;
2457,201;0,002731567;
2455,272;0,002727212;
2453,343;0,002740387;
2451,414;0,002758892;
2449,486;0,002766586;
2447,557;0,002755673;
2445,628;0,002738364;
2443,699;0,002735419;
2441,771;0,002749772;
2439,842;0,002768263;
2437,913;0,002789424;
2435,985;0,002812475;
2434,056;0,00282361;
2432,127;0,0028212;
2430,198;0,0028218;
2428,270;0,00283305;
2426,341;0,002846686;
2424,412;0,002858462;
2422,483;0,002879275;
2420,555;0,002915195;
2418,626;0,002953194;
2416,697;0,002985203;
2414,769;0,003014883;
2412,840;0,00303881;
2410,911;0,003052128;
2408,982;0,003065214;
2407,054;0,003093136;
2405,125;0,003135038;
2403,196;0,003176793;
2401,267;0,00321578;
2399,339;0,003267239;
2397,410;0,003335282;
2395,481;0,003400506;
2393,553;0,003451386;
2391,624;0,003503548;
2389,695;0,003559374;
2387,766;0,003597068;
2385,838;0,003632561;
2383,909;0,003698247;
2381,980;0,003780348;
2380,051;0,003860304;
2378,123;0,003944727;
2376,194;0,004026384;
2374,265;0,00409135;
2372,337;0,004151536;
2370,408;0,004218554;
2368,479;0,004298629;
2366,550;0,004394834;
2364,622;0,004489713;
2362,693;0,004581445;
2360,764;0,004684988;
2358,835;0,004805866;
2356,907;0,004939677;
2354,978;0,005079282;
2353,049;0,005230068;
2351,121;0,005390647;
2349,192;0,00556563;
2347,263;0,005758306;
2345,334;0,005939764;
2343,406;0,006103306;
2341,477;0,006279635;
2339,548;0,006488831;
2337,619;0,006728101;
2335,691;0,006983729;
2333,762;0,007242566;
2331,833;0,007512844;
2329,904;0,007821364;
2327,976;0,008158705;
2326,047;0,008499436;
2324,118;0,008867272;
2322,190;0,009287298;
2320,261;0,009748309;
2318,332;0,01024742;
2316,403;0,01078503;
2314,475;0,01136033;
2312,546;0,01200082;
2310,617;0,01271983;
2308,688;0,01349475;
2306,760;0,01432257;
2304,831;0,01523046;
2302,902;0,01623518;
2300,974;0,01732987;
2299,045;0,01851865;
2297,116;0,0198265;
2295,187;0,02126749;
2293,259;0,02284135;
2291,330;0,02455934;
2289,401;0,02646416;
2287,472;0,02860717;
2285,544;0,03100647;
2283,615;0,03365074;
2281,686;0,03651979;
2279,758;0,03957669;
2277,829;0,04277135;
2275,900;0,04606065;
2273,971;0,04939366;
2272,043;0,052725;
2270,114;0,05604729;
2268,185;0,05932632;
2266,256;0,0624502;
2264,328;0,06525472;
2262,399;0,06755448;
2260,470;0,06921571;
2258,542;0,07018268;
2256,613;0,07042546;
2254,684;0,06995112;
2252,755;0,06884611;
2250,827;0,06721065;
2248,898;0,06505893;
2246,969;0,06239425;
2245,040;0,05931994;
2243,112;0,05598591;
2241,183;0,05252368;
2239,254;0,04903455;
2237,326;0,04559547;
2235,397;0,04226116;
2233,468;0,03905633;
2231,539;0,03601529;
2229,611;0,03318006;
2227,682;0,03054558;
2225,753;0,02809177;
2223,824;0,02584288;
2221,896;0,02381554;
2219,967;0,02196554;
2218,038;0,02025628;
2216,109;0,01869723;
2214,181;0,01730289;
2212,252;0,01605768;
2210,323;0,01491609;
2208,395;0,01385931;
2206,466;0,01290079;
2204,537;0,01203493;
2202,608;0,01125265;
2200,680;0,01055976;
2198,751;0,009939658;
2196,822;0,009360957;
2194,893;0,008822474;
2192,965;0,008331824;
2191,036;0,00788722;
2189,107;0,007488425;
2187,179;0,007120012;
2185,250;0,006769011;
2183,321;0,006440784;
2181,392;0,006130062;
2179,464;0,005830944;
2177,535;0,005568841;
2175,606;0,005359672;
2173,677;0,005168968;
2171,749;0,004976227;
2169,820;0,004798864;
2167,891;0,004628389;
2165,963;0,00443735;
2164,034;0,004241631;
2162,105;0,004082086;
2160,176;0,003953535;
2158,248;0,003830756;
2156,319;0,003712135;
2154,390;0,003588303;
2152,461;0,00345595;
2150,533;0,003335222;
2148,604;0,00322971;
2146,675;0,003126532;
2144,747;0,003022986;
2142,818;0,002921053;
2140,889;0,002828914;
2138,960;0,002758111;
2137,032;0,002700354;
2135,103;0,002645937;
2133,174;0,002590411;
2131,245;0,002514304;
2129,317;0,002428203;
2127,388;0,002372519;
2125,459;0,002334905;
2123,530;0,002283664;
2121,602;0,002237024;
2119,673;0,002204911;
2117,744;0,002167501;
2115,816;0,002126659;
2113,887;0,002088991;
2111,958;0,002051209;
2110,029;0,002015752;
2108,101;0,001975451;
2106,172;0,001927619;
2104,243;0,001889008;
2102,314;0,001858756;
2100,386;0,001821509;
2098,457;0,001782904;
2096,528;0,001746438;
2094,600;0,001709488;
2092,671;0,001684446;
2090,742;0,001677303;
2088,813;0,001680964;
2086,885;0,001682365;
2084,956;0,001663944;
2083,027;0,001630511;
2081,098;0,001602439;
2079,170;0,001586401;
2077,241;0,001581904;
2075,312;0,001579191;
2073,384;0,001566776;
2071,455;0,001549153;
2069,526;0,001523892;
2067,597;0,001485724;
2065,669;0,001453604;
2063,740;0,001443566;
2061,811;0,001442698;
2059,882;0,001433015;
2057,954;0,001417273;
2056,025;0,001404125;
2054,096;0,001398997;
2052,168;0,001397938;
2050,239;0,001383775;
2048,310;0,001364809;
2046,381;0,00135618;
2044,453;0,001351007;
2042,524;0,00135755;
2040,595;0,001369728;
2038,666;0,001361223;
2036,738;0,001348724;
2034,809;0,0013539;
2032,880;0,001363564;
2030,952;0,001366808;
2029,023;0,001366723;
2027,094;0,001367547;
2025,165;0,001367273;
2023,237;0,001362214;
2021,308;0,001352838;
2019,379;0,001334602;
2017,450;0,001306392;
2015,522;0,001288522;
2013,593;0,001300829;
2011,664;0,001324224;
2009,735;0,00132518;
2007,807;0,001311558;
2005,878;0,001316606;
2003,949;0,001340692;
2002,021;0,001356968;
2000,092;0,001355957;
1998,163;0,001354958;
1996,234;0,00136965;
1994,306;0,001391511;
1992,377;0,001408931;
1990,448;0,001424458;
1988,519;0,001440737;
1986,591;0,001458435;
1984,662;0,001473765;
1982,733;0,001468001;
1980,805;0,001444853;
1978,876;0,001443794;
1976,947;0,001470787;
1975,018;0,001490016;
1973,090;0,001497736;
1971,161;0,001513398;
1969,232;0,001533202;
1967,303;0,001552579;
1965,375;0,001578037;
1963,446;0,001606777;
1961,517;0,001622041;
1959,589;0,001619659;
1957,660;0,001629462;
1955,731;0,001665978;
1953,802;0,001708018;
1951,874;0,001745173;
1949,945;0,001771698;
1948,016;0,001786258;
1946,087;0,001807003;
1944,159;0,001842567;
1942,230;0,001888504;
1940,301;0,001934135;
1938,373;0,001971972;
1936,444;0,002010374;
1934,515;0,002052199;
1932,586;0,002097994;
1930,658;0,002158279;
1928,729;0,002232028;
1926,800;0,002303479;
1924,871;0,002368473;
1922,943;0,002435599;
1921,014;0,002496949;
1919,085;0,002551327;
1917,157;0,002627385;
1915,228;0,002730464;
1913,299;0,002832698;
1911,370;0,00292748;
1909,442;0,003032844;
1907,513;0,003157981;
1905,584;0,003307333;
1903,655;0,003473916;
1901,727;0,003625609;
1899,798;0,003760122;
1897,869;0,00391969;
1895,940;0,004127497;
1894,012;0,004364779;
1892,083;0,004603838;
1890,154;0,004847059;
1888,226;0,005123065;
1886,297;0,005450008;
1884,368;0,005813087;
1882,439;0,006182003;
1880,511;0,006559252;
1878,582;0,006983688;
1876,653;0,007478103;
1874,724;0,008030151;
1872,796;0,008620256;
1870,867;0,009248436;
1868,938;0,009956284;
1867,010;0,0108115;
1865,081;0,01184784;
1863,152;0,01307842;
1861,223;0,01453584;
1859,295;0,01623165;
1857,366;0,01815045;
1855,437;0,02029073;
1853,508;0,02266193;
1851,580;0,02526726;
1849,651;0,02805487;
1847,722;0,03086436;
1845,794;0,03350087;
1843,865;0,03580403;
1841,936;0,03758791;
1840,007;0,03867061;
1838,079;0,03896785;
1836,150;0,03846428;
1834,221;0,03718904;
1832,292;0,03526076;
1830,364;0,0328727;
1828,435;0,03020858;
1826,506;0,02740122;
1824,578;0,02455359;
1822,649;0,02175058;
1820,720;0,01908429;
1818,791;0,01666085;
1816,863;0,01453132;
1814,934;0,01268787;
1813,005;0,01112395;
1811,076;0,009848776;
1809,148;0,008881718;
1807,219;0,008196441;
1805,290;0,007675584;
1803,362;0,007193515;
1801,433;0,006696785;
1799,504;0,006181762;
1797,575;0,005658908;
1795,647;0,005140057;
1793,718;0,004645726;
1791,789;0,004202249;
1789,860;0,003809687;
1787,932;0,003457978;
1786,003;0,003151395;
1784,074;0,002876936;
1782,145;0,002614334;
1780,217;0,002369546;
1778,288;0,002156045;
1776,359;0,001979457;
1774,431;0,001835474;
1772,502;0,001706716;
1770,573;0,001583181;
1768,644;0,00147992;
1766,716;0,00141775;
1764,787;0,001377227;
1762,858;0,001313105;
1760,929;0,001228991;
1759,001;0,001151245;
1757,072;0,001075576;
1755,143;0,001005888;
1753,215;0,0009556861;
1751,286;0,0009124309;
1749,357;0,0008613261;
1747,428;0,0008074194;
1745,500;0,0007554997;
1743,571;0,0007026844;
1741,642;0,0006508828;
1739,713;0,0006075694;
1737,785;0,0005749226;
1735,856;0,0005528322;
1733,927;0,0005426538;
1731,999;0,0005310871;
1730,070;0,0004947376;
1728,141;0,0004235472;
1726,212;0,000312192;
1724,284;0,0001805643;
1722,355;8,339754E-5;
1720,426;4,002408E-5;
1718,497;2,927616E-5;
1716,569;2,991176E-5;
1714,640;4,196015E-5;
1712,711;5,303219E-5;
1710,783;5,233333E-5;
1708,854;4,721863E-5;
1706,925;4,896389E-5;
1704,996;7,816334E-5;
1703,068;0,0001441051;
1701,139;0,0002527451;
1699,210;0,0004223418;
1697,281;0,0006788261;
1695,353;0,001089057;
1693,424;0,001749668;
1691,495;0,00277118;
1689,567;0,00419736;
1687,638;0,005781274;
1685,709;0,006991562;
1683,780;0,007391778;
1681,852;0,006979533;
1679,923;0,006141274;
1677,994;0,00530916;
1676,065;0,004689374;
1674,137;0,004263878;
1672,208;0,003928054;
1670,279;0,003613568;
1668,350;0,003312053;
1666,422;0,003019347;
1664,493;0,002738056;
1662,564;0,002471645;
1660,636;0,002214747;
1658,707;0,00199016;
1656,778;0,001801906;
1654,849;0,001629178;
1652,921;0,001489695;
1650,992;0,001399397;
1649,063;0,001335519;
1647,134;0,001276414;
1645,206;0,001212807;
1643,277;0,001146213;
1641,348;0,001094089;
1639,420;0,001062058;
1637,491;0,001028197;
1635,562;0,000984755;
1633,633;0,0009490119;
1631,705;0,0009264092;
1629,776;0,000907344;
1627,847;0,000881385;
1625,918;0,0008506685;
1623,990;0,000825001;
1622,061;0,000802201;
1620,132;0,0007825194;
1618,204;0,0007658069;
1616,275;0,000737231;
1614,346;0,0007054863;
1612,417;0,000696546;
1610,489;0,000704204;
1608,560;0,0007035983;
1606,631;0,0006925801;
1604,702;0,0006848917;
1602,774;0,0006825413;
1600,845;0,0006699025;
1598,916;0,0006487834;
1596,988;0,0006364313;
1595,059;0,0006277648;
1593,130;0,0006116483;
1591,201;0,0006006918;
1589,273;0,0006035934;
1587,344;0,0006070815;
1585,415;0,0005961944;
1583,486;0,0005744554;
1581,558;0,0005551736;
1579,629;0,0005458851;
1577,700;0,000545054;
1575,771;0,000547477;
1573,843;0,000552795;
1571,914;0,0005565344;
1569,985;0,0005508343;
1568,057;0,0005443625;
1566,128;0,0005449516;
1564,199;0,0005402075;
1562,270;0,0005279294;
1560,342;0,0005268283;
1558,413;0,0005434226;
1556,484;0,0005558059;
1554,555;0,0005397515;
1552,627;0,0005086639;
1550,698;0,0004924385;
1548,769;0,0004995718;
1546,841;0,0005091271;
1544,912;0,0005063406;
1542,983;0,0005029125;
1541,054;0,0005043513;
1539,126;0,0005021021;
1537,197;0,0004982954;
1535,268;0,0005013002;
1533,339;0,0005110668;
1531,411;0,000524506;
1529,482;0,0005387888;
1527,553;0,0005465222;
1525,625;0,0005419509;
1523,696;0,0005292725;
1521,767;0,0005169113;
1519,838;0,0005122804;
1517,910;0,0005171022;
1515,981;0,0005242417;
1514,052;0,000524632;
1512,123;0,0005178185;
1510,195;0,0005148464;
1508,266;0,0005196079;
1506,337;0,0005175633;
1504,409;0,000512157;
1502,480;0,0005306037;
1500,551;0,000573362;
1498,622;0,0006098265;
1496,694;0,0006259397;
1494,765;0,0006312063;
1492,836;0,0006284539;
1490,907;0,0006242707;
1488,979;0,0006352143;
1487,050;0,0006558359;
1485,121;0,0006733541;
1483,193;0,000689688;
1481,264;0,0007045205;
1479,335;0,000713447;
1477,406;0,0007266796;
1475,478;0,0007572015;
1473,549;0,0008037642;
1471,620;0,0008535364;
1469,691;0,0008904877;
1467,763;0,000901994;
1465,834;0,0008896064;
1463,905;0,0008780967;
1461,976;0,0008992103;
1460,048;0,0009501746;
1458,119;0,0009961819;
1456,190;0,0009879502;
1454,262;0,0008879085;
1452,333;0,000719879;
1450,404;0,0005622358;
1448,475;0,0004824343;
1446,547;0,0004896772;
1444,618;0,000554973;
1442,689;0,0006405548;
1440,760;0,0007203618;
1438,832;0,0007905569;
1436,903;0,0008429;
1434,974;0,0008605471;
1433,046;0,0008375467;
1431,117;0,0007801511;
1429,188;0,0007108871;
1427,259;0,0006644612;
1425,331;0,0006485825;
1423,402;0,0006420008;
1421,473;0,0006416004;
1419,544;0,0006620486;
1417,616;0,0006993361;
1415,687;0,00074401;
1413,758;0,0008021012;
1411,830;0,0008774909;
1409,901;0,0009623512;
1407,972;0,001048448;
1406,043;0,001140039;
1404,115;0,00123482;
1402,186;0,00132596;
1400,257;0,001424449;
1398,328;0,00154191;
1396,400;0,001681115;
1394,471;0,001853162;
1392,542;0,002059356;
1390,614;0,002277539;
1388,685;0,002506567;
1386,756;0,002773637;
1384,827;0,003088555;
1382,899;0,003447203;
1380,970;0,00385043;
1379,041;0,004315078;
1377,112;0,004884158;
1375,184;0,005583741;
1373,255;0,006399131;
1371,326;0,007301168;
1369,398;0,008219433;
1367,469;0,009003378;
1365,540;0,009501702;
1363,611;0,009679646;
1361,683;0,009565277;
1359,754;0,009095609;
1357,825;0,008146282;
1355,896;0,006733289;
1353,968;0,005089858;
1352,039;0,003553044;
1350,110;0,002421926;
1348,181;0,00184455;
1346,253;0,001747592;
1344,324;0,001845388;
1342,395;0,001814685;
1340,467;0,001610333;
1338,538;0,001539115;
1336,609;0,001902302;
1334,680;0,002635048;
1332,752;0,003365478;
1330,823;0,003750957;
1328,894;0,003688245;
1326,965;0,003284182;
1325,037;0,002725538;
1323,108;0,002159348;
1321,179;0,001652178;
1319,251;0,001241548;
1317,322;0,0009453751;
1315,393;0,0007338386;
1313,464;0,0005992931;
1311,536;0,0006128131;
1309,607;0,0008412096;
1307,678;0,001296797;
1305,749;0,001941101;
1303,821;0,002643143;
1301,892;0,00320616;
1299,963;0,003502173;
1298,035;0,003527012;
1296,106;0,003335425;
1294,177;0,002999476;
1292,248;0,002612493;
1290,320;0,002255527;
1288,391;0,001948495;
1286,462;0,001676191;
1284,533;0,001442223;
1282,605;0,001266264;
1280,676;0,001147187;
1278,747;0,001057843;
1276,819;0,0009812913;
1274,890;0,0009112968;
1272,961;0,0008304311;
1271,032;0,0007422222;
1269,104;0,0006858578;
1267,175;0,0006743615;
1265,246;0,0006707281;
1263,317;0,0006437983;
1261,389;0,0006072074;
1259,460;0,0005779066;
1257,531;0,0005424255;
1255,603;0,0005022129;
1253,674;0,0004725191;
1251,745;0,000442962;
1249,816;0,0004082902;
1247,888;0,0003752669;
1245,959;0,0003510809;
1244,030;0,0003459116;
1242,101;0,0003446078;
1240,173;0,0003247681;
1238,244;0,000288139;
1236,315;0,0002462615;
1234,386;0,0002193947;
1232,458;0,0002235259;
1230,529;0,0002346671;
1228,600;0,0002161664;
1226,672;0,0001683103;
1224,743;0,0001229464;
1222,814;0,0001064765;
1220,885;0,0001323945;
1218,957;0,0001997556;
1217,028;0,0002834182;
1215,099;0,0003431893;
1213,170;0,000362474;
1211,242;0,0003505636;
1209,313;0,0003334031;
1207,384;0,0003258283;
1205,456;0,0003225511;
1203,527;0,0003095819;
1201,598;0,000281352;
1199,669;0,0002616763;
1197,741;0,000246341;
1195,812;0,0002235054;
1193,883;0,0002252253;
1191,954;0,0002310695;
1190,026;0,0001856093;
1188,097;0,000137281;
1186,168;0,000149078;
1184,240;0,0001814395;
1182,311;0,0001838003;
1180,382;0,0001769933;
1178,453;0,0001836352;
1176,525;0,0001810397;
1174,596;0,0001540759;
1172,667;0,000138342;
1170,738;0,000129959;
1168,810;0,0001070494;
1166,881;9,668132E-5;
1164,952;9,456224E-5;
1163,024;9,938495E-5;
1161,095;0,0001258901;
1159,166;0,0001561065;
1157,237;0,0001707663;
1155,309;0,0001538827;
1153,380;0,0001262795;
1151,451;0,0001388901;
1149,522;0,0001575896;
1147,594;0,0001431757;
1145,665;0,0001202043;
1143,736;0,0001203128;
1141,807;0,0001257157;
1139,879;0,0001305;
1137,950;0,0001399147;
1136,021;0,0001661987;
1134,093;0,0001824975;
1132,164;0,0001598904;
1130,235;0,0001190928;
1128,306;7,564738E-5;
1126,378;3,907759E-5;
1124,449;4,560542E-5;
1122,520;9,474524E-5;
1120,591;0,0001331627;
1118,663;0,0001287044;
1116,734;0,0001114023;
1114,805;0,0001192459;
1112,877;0,0001347872;
1110,948;0,0001419927;
1109,019;0,0001502111;
1107,090;0,0001403728;
1105,162;0,0001134353;
1103,233;0,0001183201;
1101,304;0,0001045737;
1099,375;7,230974E-5;
1097,447;6,760496E-5;
1095,518;0,0001116192;
1093,589;0,0001470305;
1091,661;0,000148013;
1089,732;0,0001395309;
1087,803;0,0001385439;
1085,874;0,0001033938;
1083,946;7,056708E-5;
1082,017;0,0001126592;
1080,088;0,0001052679;
1078,159;0,0001044353;
1076,231;0,0001375999;
1074,302;0,0001447936;
1072,373;0,0001301754;
1070,445;9,251545E-5;
1068,516;9,094756E-5;
1066,587;0,0001415491;
1064,658;0,0001506863;
1062,730;8,161879E-5;
1060,801;5,022276E-5;
1058,872;7,893626E-5;
1056,943;0,0001094507;
1055,015;0,0001071834;
1053,086;7,085816E-5;
1051,157;2,916987E-5;
1049,229;2,862686E-5;
1047,300;4,207938E-5;
1045,371;6,482555E-5;
1043,442;6,841984E-5;
1041,514;9,813465E-5;
1039,585;0,0001039614;
1037,656;7,142356E-5;
1035,727;8,680168E-5;
1033,799;0,0001209003;
1031,870;0,0001404031;
1029,941;0,0001195779;
1028,012;0,0001158314;
1026,084;0,0001063391;
1024,155;7,960622E-5;
1022,226;6,339654E-5;
1020,298;7,692981E-5;
1018,369;0,0001099303;
1016,440;0,000104377;
1014,511;5,739722E-5;
1012,583;4,344654E-5;
1010,654;5,366576E-5;
1008,725;8,662044E-5;
1006,796;9,489179E-5;
1004,868;7,171243E-5;
1002,939;4,632639E-5;
1001,010;6,344924E-5;
999,082;6,709067E-5;
997,153;4,847848E-5;
995,224;4,158415E-5;
993,295;5,490888E-5;
991,367;4,161472E-5;
989,438;4,4514E-5;
987,509;5,831323E-5;
985,580;5,077403E-5;
983,652;6,597663E-5;
981,723;5,648103E-5;
979,794;3,960576E-5;
977,866;5,804139E-5;
975,937;5,853959E-5;
974,008;5,910681E-5;
972,079;5,372216E-5;
970,151;4,102828E-5;
968,222;2,157656E-5;
966,293;3,280745E-5;
964,364;3,693123E-5;
962,436;3,878216E-5;
960,507;3,908529E-5;
958,578;6,227472E-5;
956,650;3,372343E-5;
954,721;4,64158E-5;
952,792;7,195275E-5;
950,863;9,43132E-5;
948,935;0,0001223502;
947,006;0,0001415502;
945,077;0,0001079484;
943,148;4,005837E-5;
941,220;2,902442E-5;
939,291;5,10372E-5;
937,362;7,137648E-5;
935,434;8,114129E-5;
933,505;5,817622E-5;
931,576;4,06366E-5;
929,647;3,239755E-5;
927,719;3,1779E-5;
925,790;7,183154E-5;
923,861;8,1036E-5;
921,932;8,51046E-5;
920,004;0,0001026328;
918,075;8,120839E-5;
916,146;5,780845E-5;
914,217;4,525802E-5;
912,289;4,102992E-5;
910,360;2,148075E-5;
908,431;2,257171E-5;
906,503;4,289441E-5;
904,574;4,854707E-5;
902,645;7,581335E-5;
900,716;7,407969E-5;
898,788;7,946559E-5;
896,859;0,0001011081;
894,930;9,350513E-5;
893,001;7,864204E-5;
891,073;3,61538E-5;
889,144;8,273673E-5;
887,215;0,0001098624;
885,287;8,869158E-5;
883,358;5,092459E-5;
881,429;5,582804E-5;
879,500;0,0001244513;
877,572;0,0001963047;
875,643;0,0001835617;
873,714;0,0001234063;
871,785;0,0001052226;
869,857;0,0001193733;
867,928;8,426724E-5;
865,999;6,37519E-5;
864,071;5,111762E-5;
862,142;1,513384E-5;
860,213;4,864003E-5;
858,284;5,694534E-5;
856,356;7,28512E-5;
854,427;9,808156E-5;
852,498;0,0001065092;
850,569;7,885134E-5;
848,641;6,624075E-5;
846,712;5,324681E-5;
844,783;8,211663E-5;
842,855;0,000106743;
840,926;0,0001201566;
838,997;0,0001066828;
837,068;7,703586E-5;
835,140;8,863986E-5;
833,211;8,752379E-5;
831,282;2,399919E-5;
829,353;9,077819E-5;
827,425;0,0001727567;
825,496;0,0001986242;
823,567;0,0001276033;
821,639;0,000130083;
819,710;0,0001468972;
817,781;8,84113E-5;
815,852;7,374005E-5;
813,924;0,0001100497;
811,995;0,0001108846;
810,066;0,000121465;
808,137;8,71761E-5;
806,209;7,375379E-5;
804,280;0,0001518821;
802,351;0,0001386043;
800,422;8,050956E-5;
798,494;9,050134E-5;
796,565;0,0001346958;
794,636;0,000178105;
792,708;0,0001756917;
790,779;0,0001081157;
788,850;5,602325E-5;
786,921;0,0001040684;
784,993;0,0001160009;
783,064;6,225196E-5;
781,135;6,031182E-5;
779,206;0,0001048534;
777,278;0,0001601455;
775,349;0,0001663459;
773,420;0,0001480433;
771,492;0,0001422165;
769,563;0,0001096784;
767,634;3,883308E-5;
765,705;8,408725E-5;
763,777;0,0001177927;
761,848;8,382432E-5;
759,919;5,177881E-5;
757,990;6,189403E-5;
756,062;0,0001157682;
754,133;0,0001312068;
752,204;0,0001172651;
750,276;6,26039E-5;
748,347;8,352031E-5;
746,418;9,006224E-5;
744,489;8,420188E-5;
742,561;0,0001355355;
740,632;0,0001155717;
738,703;8,723783E-5;
736,774;7,358312E-5;
734,846;0,0001066152;
732,917;0,000138844;
730,988;0,0001082014;
729,060;0,000181297;
727,131;0,0002165931;
725,202;0,0001569057;
723,273;0,00013596;
721,345;8,901065E-5;
719,416;5,462229E-5;
717,487;8,273057E-5;
715,558;9,096519E-5;
713,630;0,0001084917;
711,701;0,0001466638;
709,772;0,0001053577;
707,843;0,0001660972;
705,915;0,000262893;
703,986;0,0002882341;
702,057;0,0002715864;
700,129;0,0002776485;
698,200;0,0003069747;
696,271;0,0002672581;
694,342;0,0002125216;
692,414;0,0001866607;
690,485;0,0001302915;
688,556;0,0001079748;
686,627;0,0001379342;
684,699;0,0001784502;
682,770;0,0001363096;
680,841;0,0001198697;
678,913;0,0001645904;
676,984;0,0001718817;
675,055;0,0001315662;
673,126;0,000108776;
671,198;0,0001597488;
669,269;0,0001443646;
667,340;7,22148E-5;
665,411;0,0001152818;
663,483;0,0001620564;
661,554;0,0002033326;
659,625;0,0001997126;
657,697;0,000165716;
655,768;0,0001496482;
653,839;0,00015646;
651,910;0,0001428284;
649,982;0,0002008538;
648,053;0,0001998564;
646,124;0,0001086231;
644,195;0,0002243042;
642,267;0,0002840034;
640,338;0,0002507587;
638,409;0,0001985965;
636,481;0,0002058013;
634,552;0,0002239893;
632,623;0,0001896504;
630,694;0,0001626655;
628,766;0,0001722014;
626,837;0,0001630329;
624,908;0,0002244083;
622,979;0,0003061178;
621,051;0,0002630488;
619,122;0,0001894138;
617,193;0,000225309;
615,265;0,0002427372;
613,336;0,0001990049;
611,407;0,0002706645;
609,478;0,0003559891;
607,550;0,0003095404;
605,621;0,0002294945;
603,692;0,0002237698;
601,763;0,00027794;
599,835;0,0003554258;
597,906;0,0004386914;
595,977;0,0004018413;
594,048;0,0004359254;
592,120;0,0004626292;
590,191;0,0003518144;
588,262;0,0002429566;
586,334;0,0002205093;
584,405;0,0002164094;
582,476;0,0002696479;
580,547;0,0002700558;
578,619;0,0003795362;
576,690;0,000450851;
574,761;0,0004269786;
572,832;0,0003588228;
570,904;0,0002259521;
568,975;0,0003456171;
567,046;0,0005744539;
565,118;0,0004503667;
563,189;0,0003576543;
561,260;0,0004735002;
559,331;0,0004342894;
557,403;0,0002733845;
555,474;0,0003413259;
553,545;0,0003998988;
551,616;0,0003714776;
549,688;0,000404909;
547,759;0,0002267356;
545,830;0,0002805171;
543,902;0,0003964233;
541,973;0,0001974833;
540,044;0,0001894264;
538,115;0,0004394551;
536,187;0,0005548978;
534,258;0,000423624;
532,329;0,0001002836;
530,400;0,0002281863;
528,472;0,0002434057;
526,543;0,0002946144;
524,614;0,0003234236;
522,686;0,0003159725;
520,757;0,0002048982;
518,828;0,0002238468;
516,899;0,0003097859;
514,971;0,0002048365;
513,042;0,0003016463;
511,113;0,0003423452;
509,184;0,0003243844;
507,256;0,0005175571;
505,327;0,0004431174;
503,398;0,0004760419;
501,470;0,0006155675;
499,541;0,0004663487;
497,612;0,0005393183;
495,683;0,0005727931;
493,755;0,0005740513;
491,826;0,0005164887;
489,897;0,0008579841;
487,968;0,001234826;
486,040;0,001223694;
484,111;0,00096467;
482,182;0,0005442842;
480,253;0,0003577518;
478,325;0,0005476649;
476,396;0,0005709942;
474,467;0,0004474894;
472,539;0,0006263696;
470,610;0,0005874967;
468,681;0,0005375914;
466,752;0,0005853892;
464,824;0,0003389998;
462,895;0,0006568244;
460,966;0,000784722;
459,037;0,0004518703;
457,109;0,0004663015;
455,180;0,0007093532;
453,251;0,0004716224;
451,323;0,0002620703;
449,394;0,0002941823;
447,465;0,0006077053;
445,536;0,001111434;
443,608;0,001072894;
441,679;0,000823738;
439,750;0,0006411315;
437,821;0,0006968242;
435,893;0,0008992646;
433,964;0,0007713321;
432,035;0,001024141;
430,107;0,001050523;
428,178;0,001319263;
426,249;0,001320645;
424,320;0,0008688914;
422,392;0,00152368;
420,463;0,001990639;
418,534;0,001524154;
416,605;0,001812953;
414,677;0,002496978;
412,748;0,002386947;
410,819;0,002096575;
408,891;0,001757285;
406,962;0,001638885;
405,033;0,00216159;
403,104;0,00217018;
401,176;0,00160397;
399,247;0,002218182;
397,318;0,003923166;
395,389;0,005967672;
393,461;0,005497111;
391,532;0,004562756;
389,603;0,004195924;
387,675;0,004844402;
385,746;0,006240578;
383,817;0,007633335;
381,888;0,005955952;
379,960;0,004117915;
378,031;0,01008412;
376,102;0,01166678;
374,173;0,01022898;
