,1,
Wavenumbers [1/cm],Transmittance,
7496.969,0.07416819,
7495.040,0.074555,
7493.112,0.07498193,
7491.183,0.07461318,
7489.254,0.07365704,
7487.326,0.07344706,
7485.397,0.07396892,
7483.468,0.0745173,
7481.539,0.07516757,
7479.611,0.07580789,
7477.682,0.07625997,
7475.753,0.07684698,
7473.824,0.0774837,
7471.896,0.07788719,
7469.967,0.07862777,
7468.038,0.08005123,
7466.110,0.08162005,
7464.181,0.08312171,
7462.252,0.08438508,
7460.323,0.08521426,
7458.395,0.08606313,
7456.466,0.08737861,
7454.537,0.08907931,
7452.608,0.0908583,
7450.680,0.09287808,
7448.751,0.09534641,
7446.822,0.09732307,
7444.893,0.09814265,
7442.965,0.09908579,
7441.036,0.1013879,
7439.107,0.1043195,
7437.179,0.1068742,
7435.250,0.1091447,
7433.321,0.1113475,
7431.392,0.1134394,
7429.464,0.1153053,
7427.535,0.1169551,
7425.606,0.1189259,
7423.677,0.1215787,
7421.749,0.1243851,
7419.820,0.1264836,
7417.891,0.1279223,
7415.963,0.1296512,
7414.034,0.1318493,
7412.105,0.1340851,
7410.176,0.1363531,
7408.248,0.1385388,
7406.319,0.140288,
7404.390,0.1416815,
7402.461,0.1430702,
7400.533,0.144625,
7398.604,0.1466631,
7396.675,0.1489966,
7394.747,0.150821,
7392.818,0.1522098,
7390.889,0.1534501,
7388.960,0.1542485,
7387.032,0.1544571,
7385.103,0.1540995,
7383.174,0.1536926,
7381.245,0.1540218,
7379.317,0.1549042,
7377.388,0.1554062,
7375.459,0.1551959,
7373.531,0.154606,
7371.602,0.1536276,
7369.673,0.1520159,
7367.744,0.1499487,
7365.816,0.1478315,
7363.887,0.1459199,
7361.958,0.1444493,
7360.029,0.1431175,
7358.101,0.1410065,
7356.172,0.1383905,
7354.243,0.1362688,
7352.314,0.1340881,
7350.386,0.1311939,
7348.457,0.1287469,
7346.528,0.1274819,
7344.600,0.1258982,
7342.671,0.1227538,
7340.742,0.1190711,
7338.813,0.116307,
7336.885,0.1143479,
7334.956,0.1123295,
7333.027,0.1101831,
7331.098,0.1081565,
7329.170,0.105957,
7327.241,0.1034589,
7325.312,0.1011132,
7323.384,0.09910702,
7321.455,0.09712899,
7319.526,0.0950544,
7317.597,0.09303734,
7315.669,0.09137507,
7313.740,0.09045327,
7311.811,0.08986575,
7309.882,0.08864077,
7307.954,0.08668667,
7306.025,0.08482465,
7304.096,0.08357549,
7302.168,0.08251623,
7300.239,0.08105874,
7298.310,0.07946604,
7296.381,0.07842129,
7294.453,0.07780466,
7292.524,0.07706901,
7290.595,0.07639065,
7288.666,0.07602408,
7286.738,0.07579248,
7284.809,0.07559949,
7282.880,0.07545295,
7280.952,0.07526857,
7279.023,0.07526254,
7277.094,0.07573,
7275.165,0.07608104,
7273.237,0.0757179,
7271.308,0.07525761,
7269.379,0.07543496,
7267.450,0.07606086,
7265.522,0.07664101,
7263.593,0.07726194,
7261.664,0.07805664,
7259.736,0.07862549,
7257.807,0.07884413,
7255.878,0.07914673,
7253.949,0.08005348,
7252.021,0.08165508,
7250.092,0.08342616,
7248.163,0.08486052,
7246.234,0.08630499,
7244.306,0.08809298,
7242.377,0.08944537,
7240.448,0.09002752,
7238.519,0.09089296,
7236.591,0.09290848,
7234.662,0.09557953,
7232.733,0.09779413,
7230.805,0.09931505,
7228.876,0.1008694,
7226.947,0.1029433,
7225.018,0.1053533,
7223.090,0.1074723,
7221.161,0.1089835,
7219.232,0.1107377,
7217.303,0.1131747,
7215.375,0.1155469,
7213.446,0.1177709,
7211.517,0.1203392,
7209.589,0.1232407,
7207.660,0.1259968,
7205.731,0.128231,
7203.802,0.130365,
7201.874,0.1328862,
7199.945,0.1356761,
7198.016,0.1383239,
7196.087,0.1406152,
7194.159,0.1429864,
7192.230,0.1456733,
7190.301,0.1478883,
7188.373,0.1492476,
7186.444,0.1507738,
7184.515,0.1529861,
7182.586,0.1550407,
7180.658,0.1564257,
7178.729,0.1574253,
7176.800,0.1586144,
7174.871,0.1603791,
7172.943,0.162343,
7171.014,0.1638123,
7169.085,0.164645,
7167.157,0.1653585,
7165.228,0.166092,
7163.299,0.1663047,
7161.370,0.1661766,
7159.442,0.1663853,
7157.513,0.1667055,
7155.584,0.1665406,
7153.655,0.1657564,
7151.727,0.1646219,
7149.798,0.1636732,
7147.869,0.162951,
7145.941,0.1617075,
7144.012,0.1597097,
7142.083,0.1576608,
7140.154,0.1557045,
7138.226,0.1532007,
7136.297,0.1501277,
7134.368,0.1473755,
7132.439,0.145292,
7130.511,0.1430566,
7128.582,0.1402491,
7126.653,0.1373296,
7124.724,0.1347042,
7122.796,0.1323709,
7120.867,0.1298343,
7118.938,0.1268483,
7117.010,0.1237281,
7115.081,0.120796,
7113.152,0.1182654,
7111.223,0.1156303,
7109.295,0.1124216,
7107.366,0.1094641,
7105.437,0.1071588,
7103.508,0.1047309,
7101.580,0.1019995,
7099.651,0.09962414,
7097.722,0.09774659,
7095.794,0.09568276,
7093.865,0.09327168,
7091.936,0.09117883,
7090.007,0.08965487,
7088.079,0.08819963,
7086.150,0.08616328,
7084.221,0.0836458,
7082.292,0.08153545,
7080.364,0.0800646,
7078.435,0.07875462,
7076.506,0.07748432,
7074.578,0.07632657,
7072.649,0.07529905,
7070.720,0.07429241,
7068.791,0.07302134,
7066.863,0.07173749,
7064.934,0.07097398,
7063.005,0.07045864,
7061.076,0.06964877,
7059.148,0.06859677,
7057.219,0.06785915,
7055.290,0.0678357,
7053.362,0.06797133,
7051.433,0.06755932,
7049.504,0.06706208,
7047.575,0.06720438,
7045.647,0.06761776,
7043.718,0.06770537,
7041.789,0.0674866,
7039.860,0.06713507,
7037.932,0.06703664,
7036.003,0.06758436,
7034.074,0.06840256,
7032.146,0.06904178,
7030.217,0.0698056,
7028.288,0.07084972,
7026.359,0.07175425,
7024.431,0.07234534,
7022.502,0.07311038,
7020.573,0.0744459,
7018.644,0.07571299,
7016.716,0.0763798,
7014.787,0.07714016,
7012.858,0.07872743,
7010.929,0.08076216,
7009.001,0.08230329,
7007.072,0.0832765,
7005.143,0.08458668,
7003.215,0.08655148,
7001.286,0.08857902,
6999.357,0.09047227,
6997.428,0.09254214,
6995.500,0.09489555,
6993.571,0.09732626,
6991.642,0.09956721,
6989.713,0.1017898,
6987.785,0.1041811,
6985.856,0.1063028,
6983.927,0.107996,
6981.999,0.109805,
6980.070,0.1122769,
6978.141,0.1153592,
6976.212,0.1182837,
6974.284,0.1204447,
6972.355,0.1221805,
6970.426,0.1242134,
6968.497,0.126643,
6966.569,0.1291954,
6964.640,0.1318461,
6962.711,0.1345093,
6960.783,0.1368705,
6958.854,0.1387471,
6956.925,0.1403739,
6954.996,0.1421668,
6953.068,0.144358,
6951.139,0.1467187,
6949.210,0.1486135,
6947.281,0.1498885,
6945.353,0.1511167,
6943.424,0.1526917,
6941.495,0.1543411,
6939.567,0.1554479,
6937.638,0.1558177,
6935.709,0.1560286,
6933.780,0.1564889,
6931.852,0.1567152,
6929.923,0.1563969,
6927.994,0.1559729,
6926.065,0.1555704,
6924.137,0.1548117,
6922.208,0.153471,
6920.279,0.151719,
6918.350,0.1501052,
6916.422,0.148791,
6914.493,0.1471101,
6912.564,0.1447101,
6910.636,0.142176,
6908.707,0.1400394,
6906.778,0.1381013,
6904.849,0.1357152,
6902.921,0.1325909,
6900.992,0.1293183,
6899.063,0.1264288,
6897.134,0.1236962,
6895.206,0.1209958,
6893.277,0.118539,
6891.348,0.1161786,
6889.420,0.1135468,
6887.491,0.1107189,
6885.562,0.108041,
6883.633,0.1056209,
6881.705,0.1033028,
6879.776,0.1008006,
6877.847,0.09809015,
6875.918,0.09560511,
6873.990,0.09361856,
6872.061,0.09182657,
6870.132,0.08986785,
6868.204,0.08788386,
6866.275,0.08605281,
6864.346,0.0842577,
6862.417,0.08248582,
6860.489,0.08074877,
6858.560,0.0791347,
6856.631,0.07794432,
6854.702,0.07697176,
6852.774,0.0757116,
6850.845,0.07448148,
6848.916,0.07366547,
6846.988,0.07265718,
6845.059,0.07103533,
6843.130,0.06943189,
6841.201,0.06857553,
6839.273,0.06843244,
6837.344,0.0684178,
6835.415,0.06801514,
6833.486,0.06736077,
6831.558,0.06707366,
6829.629,0.06711171,
6827.700,0.06688976,
6825.772,0.06648877,
6823.843,0.06650769,
6821.914,0.06688309,
6819.985,0.06703477,
6818.057,0.06701159,
6816.128,0.06721184,
6814.199,0.06767154,
6812.270,0.06827804,
6810.342,0.06890798,
6808.413,0.0695208,
6806.484,0.07028882,
6804.555,0.0711927,
6802.627,0.07196917,
6800.698,0.07279822,
6798.769,0.07406323,
6796.841,0.07552298,
6794.912,0.07678889,
6792.983,0.07799334,
6791.054,0.07944247,
6789.126,0.08118517,
6787.197,0.08303725,
6785.268,0.08482641,
6783.339,0.08663315,
6781.411,0.0886724,
6779.482,0.09095529,
6777.553,0.09330364,
6775.625,0.09541015,
6773.696,0.09728739,
6771.767,0.09941427,
6769.838,0.1019118,
6767.910,0.1045128,
6765.981,0.1071315,
6764.052,0.1098805,
6762.123,0.1127059,
6760.195,0.1153372,
6758.266,0.1177584,
6756.337,0.120293,
6754.409,0.123054,
6752.480,0.1256703,
6750.551,0.1279182,
6748.622,0.1301346,
6746.694,0.1327419,
6744.765,0.135616,
6742.836,0.1381008,
6740.907,0.1402282,
6738.979,0.1427463,
6737.050,0.1457015,
6735.121,0.1485051,
6733.193,0.1507401,
6731.264,0.1525218,
6729.335,0.1543229,
6727.406,0.1562952,
6725.478,0.1581362,
6723.549,0.1596435,
6721.620,0.1609896,
6719.691,0.162244,
6717.763,0.163257,
6715.834,0.1639832,
6713.905,0.1645277,
6711.977,0.1650887,
6710.048,0.1654851,
6708.119,0.1652049,
6706.190,0.1643761,
6704.262,0.1636668,
6702.333,0.1630617,
6700.404,0.1619257,
6698.475,0.160278,
6696.547,0.1585889,
6694.618,0.156885,
6692.689,0.1550125,
6690.760,0.152752,
6688.832,0.1500254,
6686.903,0.1474394,
6684.974,0.1452177,
6683.046,0.142481,
6681.117,0.1389,
6679.188,0.1353657,
6677.259,0.1325269,
6675.331,0.1300819,
6673.402,0.1273526,
6671.473,0.1240398,
6669.544,0.1206206,
6667.616,0.1176578,
6665.687,0.1149628,
6663.758,0.11211,
6661.830,0.1091925,
6659.901,0.1064519,
6657.972,0.1037547,
6656.043,0.1010624,
6654.115,0.09853793,
6652.186,0.0961455,
6650.257,0.09386514,
6648.328,0.09145127,
6646.400,0.08868393,
6644.471,0.08610097,
6642.542,0.08406991,
6640.614,0.08231158,
6638.685,0.08061995,
6636.756,0.07895052,
6634.827,0.07729065,
6632.899,0.07566431,
6630.970,0.07406586,
6629.041,0.07253971,
6627.112,0.07123568,
6625.184,0.07017272,
6623.255,0.06916162,
6621.326,0.06800301,
6619.398,0.06673835,
6617.469,0.06572337,
6615.540,0.06510979,
6613.611,0.06462195,
6611.683,0.06399082,
6609.754,0.06327449,
6607.825,0.06281631,
6605.896,0.06265787,
6603.968,0.06236601,
6602.039,0.06186342,
6600.110,0.0616353,
6598.182,0.06179932,
6596.253,0.06189192,
6594.324,0.06174809,
6592.395,0.06178601,
6590.467,0.06214188,
6588.538,0.06237493,
6586.609,0.06253005,
6584.680,0.06310136,
6582.752,0.06400897,
6580.823,0.06492426,
6578.894,0.06567988,
6576.965,0.06622028,
6575.037,0.06687092,
6573.108,0.06793084,
6571.179,0.06923094,
6569.251,0.07053047,
6567.322,0.07177947,
6565.393,0.07315723,
6563.464,0.0748015,
6561.536,0.07642499,
6559.607,0.0778464,
6557.678,0.07942638,
6555.749,0.08142363,
6553.821,0.0835667,
6551.892,0.08550486,
6549.963,0.08732887,
6548.035,0.08936653,
6546.106,0.09156535,
6544.177,0.09366369,
6542.248,0.09592479,
6540.320,0.09876341,
6538.391,0.1018163,
6536.462,0.1044523,
6534.533,0.1067662,
6532.605,0.1092368,
6530.676,0.1119688,
6528.747,0.1147248,
6526.819,0.1173583,
6524.890,0.1200529,
6522.961,0.1229738,
6521.032,0.1257738,
6519.104,0.1281867,
6517.175,0.1305252,
6515.246,0.1331124,
6513.317,0.1359946,
6511.389,0.1389263,
6509.460,0.1415269,
6507.531,0.1438016,
6505.603,0.1460924,
6503.674,0.1484652,
6501.745,0.1506508,
6499.816,0.1525807,
6497.888,0.1543397,
6495.959,0.1558992,
6494.030,0.1572777,
6492.101,0.1583905,
6490.173,0.1592252,
6488.244,0.1600266,
6486.315,0.160674,
6484.386,0.1607827,
6482.458,0.1604121,
6480.529,0.1599807,
6478.600,0.1595336,
6476.672,0.1586484,
6474.743,0.157203,
6472.814,0.155582,
6470.885,0.1540608,
6468.957,0.1523475,
6467.028,0.1500446,
6465.099,0.147353,
6463.170,0.1446528,
6461.242,0.1418995,
6459.313,0.1388827,
6457.384,0.1356251,
6455.456,0.1324376,
6453.527,0.1295232,
6451.598,0.1265988,
6449.669,0.1232856,
6447.741,0.119811,
6445.812,0.1167694,
6443.883,0.1142019,
6441.954,0.1115618,
6440.026,0.108533,
6438.097,0.1054744,
6436.168,0.1028327,
6434.240,0.1002975,
6432.311,0.09741104,
6430.382,0.09461553,
6428.453,0.09244607,
6426.525,0.09046169,
6424.596,0.08807392,
6422.667,0.08550315,
6420.738,0.08324252,
6418.810,0.0813289,
6416.881,0.07950539,
6414.952,0.07766282,
6413.024,0.07587977,
6411.095,0.07430723,
6409.166,0.07288957,
6407.237,0.07135784,
6405.309,0.06984314,
6403.380,0.06866366,
6401.451,0.06766244,
6399.522,0.06652103,
6397.594,0.06527279,
6395.665,0.06436745,
6393.736,0.06398692,
6391.808,0.06362507,
6389.879,0.06294525,
6387.950,0.06219269,
6386.021,0.06172674,
6384.093,0.0615364,
6382.164,0.06126993,
6380.235,0.06087896,
6378.306,0.06062977,
6376.378,0.06054221,
6374.449,0.06053296,
6372.520,0.06067981,
6370.591,0.06099674,
6368.663,0.06147216,
6366.734,0.06203058,
6364.805,0.06246617,
6362.877,0.06286544,
6360.948,0.06351559,
6359.019,0.06448281,
6357.090,0.0654804,
6355.162,0.06616665,
6353.233,0.06676812,
6351.304,0.06779857,
6349.375,0.06925783,
6347.447,0.07065464,
6345.518,0.07176308,
6343.589,0.07299489,
6341.661,0.07461473,
6339.732,0.07628694,
6337.803,0.07778835,
6335.874,0.07934987,
6333.946,0.08123235,
6332.017,0.08335272,
6330.088,0.08536849,
6328.159,0.08722643,
6326.231,0.08939765,
6324.302,0.09200425,
6322.373,0.09443314,
6320.445,0.09650519,
6318.516,0.09876463,
6316.587,0.1013475,
6314.658,0.1039213,
6312.730,0.106405,
6310.801,0.1089942,
6308.872,0.1119114,
6306.943,0.1149447,
6305.015,0.1176307,
6303.086,0.1201209,
6301.157,0.1228049,
6299.229,0.1255924,
6297.300,0.128307,
6295.371,0.1309915,
6293.442,0.1337082,
6291.514,0.1364404,
6289.585,0.1391444,
6287.656,0.1418096,
6285.727,0.1444218,
6283.799,0.1470298,
6281.870,0.1496255,
6279.941,0.1519066,
6278.013,0.1537758,
6276.084,0.1556414,
6274.155,0.1577226,
6272.226,0.159679,
6270.298,0.161177,
6268.369,0.1622963,
6266.440,0.1632489,
6264.511,0.1640729,
6262.583,0.1645736,
6260.654,0.1646028,
6258.725,0.1643048,
6256.796,0.1637631,
6254.868,0.1628495,
6252.939,0.1615476,
6251.010,0.1599835,
6249.082,0.1582467,
6247.153,0.1563548,
6245.224,0.1541739,
6243.295,0.1515235,
6241.367,0.1486139,
6239.438,0.145725,
6237.509,0.1427234,
6235.580,0.1394738,
6233.652,0.1360728,
6231.723,0.1327364,
6229.794,0.1295584,
6227.866,0.1263367,
6225.937,0.1230062,
6224.008,0.1197924,
6222.079,0.1167042,
6220.151,0.1134324,
6218.222,0.1099324,
6216.293,0.1065735,
6214.364,0.1035116,
6212.436,0.1005695,
6210.507,0.09772912,
6208.578,0.09505046,
6206.650,0.09245384,
6204.721,0.08992596,
6202.792,0.08746691,
6200.863,0.08502861,
6198.935,0.08273526,
6197.006,0.08070516,
6195.077,0.07871104,
6193.148,0.07648214,
6191.220,0.07417683,
6189.291,0.07221749,
6187.362,0.07072281,
6185.434,0.0693557,
6183.505,0.06782239,
6181.576,0.06630623,
6179.647,0.06510688,
6177.719,0.06407604,
6175.790,0.06286598,
6173.861,0.06152682,
6171.932,0.06045851,
6170.004,0.0597518,
6168.075,0.05898169,
6166.146,0.05801884,
6164.218,0.05731469,
6162.289,0.05704554,
6160.360,0.05690331,
6158.431,0.05658008,
6156.503,0.05606747,
6154.574,0.05572392,
6152.645,0.05572917,
6150.716,0.05577207,
6148.788,0.0556756,
6146.859,0.05573193,
6144.930,0.05606825,
6143.001,0.05636322,
6141.073,0.05645373,
6139.144,0.05655808,
6137.215,0.05691288,
6135.287,0.05751681,
6133.358,0.05818916,
6131.429,0.05883027,
6129.500,0.05956039,
6127.572,0.06059033,
6125.643,0.06188759,
6123.714,0.06310362,
6121.785,0.0641403,
6119.857,0.0653116,
6117.928,0.06672745,
6115.999,0.06823692,
6114.071,0.06976612,
6112.142,0.07139031,
6110.213,0.07323387,
6108.284,0.07515967,
6106.356,0.07697341,
6104.427,0.07891373,
6102.498,0.08126592,
6100.569,0.08375964,
6098.641,0.08607081,
6096.712,0.08837046,
6094.783,0.09087825,
6092.855,0.09358997,
6090.926,0.09630465,
6088.997,0.09883507,
6087.068,0.1014297,
6085.140,0.1043043,
6083.211,0.107247,
6081.282,0.1101029,
6079.353,0.1130448,
6077.425,0.11628,
6075.496,0.1196142,
6073.567,0.1227348,
6071.639,0.1257018,
6069.710,0.1287698,
6067.781,0.1319804,
6065.852,0.1350393,
6063.924,0.137798,
6061.995,0.1405782,
6060.066,0.1436001,
6058.137,0.1466355,
6056.209,0.1493818,
6054.280,0.1517524,
6052.351,0.1539432,
6050.423,0.1561635,
6048.494,0.1583282,
6046.565,0.1602268,
6044.636,0.1617199,
6042.708,0.1627875,
6040.779,0.1634633,
6038.850,0.1637432,
6036.921,0.1637097,
6034.993,0.1634974,
6033.064,0.1630917,
6031.135,0.1623589,
6029.206,0.1611866,
6027.278,0.1596157,
6025.349,0.1578388,
6023.420,0.1558473,
6021.492,0.1534394,
6019.563,0.1507022,
6017.634,0.1478693,
6015.705,0.1449776,
6013.777,0.1419712,
6011.848,0.1387747,
6009.919,0.1354343,
6007.990,0.1321381,
6006.062,0.1288206,
6004.133,0.1252266,
6002.204,0.1214716,
6000.276,0.1179184,
5998.347,0.1146398,
5996.418,0.1114456,
5994.489,0.1082144,
5992.561,0.105055,
5990.632,0.1020736,
5988.703,0.09910412,
5986.774,0.09598634,
5984.846,0.09289541,
5982.917,0.09010618,
5980.988,0.08752888,
5979.060,0.08490497,
5977.131,0.08228593,
5975.202,0.07979658,
5973.273,0.07743122,
5971.345,0.07519359,
5969.416,0.07302323,
5967.487,0.07096776,
5965.558,0.06921105,
5963.630,0.06762949,
5961.701,0.06593905,
5959.772,0.06417273,
5957.844,0.06259587,
5955.915,0.06129793,
5953.986,0.06010725,
5952.057,0.05893554,
5950.129,0.05788552,
5948.200,0.05698774,
5946.271,0.056164,
5944.342,0.05536768,
5942.414,0.05462079,
5940.485,0.05403686,
5938.556,0.05363176,
5936.627,0.05317418,
5934.699,0.05259354,
5932.770,0.05213647,
5930.841,0.05195189,
5928.913,0.05192008,
5926.984,0.05180236,
5925.055,0.05161282,
5923.126,0.05168507,
5921.198,0.05202857,
5919.269,0.05229719,
5917.340,0.05247194,
5915.411,0.05284502,
5913.483,0.053501,
5911.554,0.05420891,
5909.625,0.05477446,
5907.697,0.05531714,
5905.768,0.05607789,
5903.839,0.05702882,
5901.910,0.05797395,
5899.982,0.05891876,
5898.053,0.05996921,
5896.124,0.0611316,
5894.195,0.0623772,
5892.267,0.06368452,
5890.338,0.06512276,
5888.409,0.06684477,
5886.481,0.0688035,
5884.552,0.07069855,
5882.623,0.07243717,
5880.694,0.07429204,
5878.766,0.07638837,
5876.837,0.07857408,
5874.908,0.08083599,
5872.979,0.08327027,
5871.051,0.085834,
5869.122,0.08841793,
5867.193,0.09094766,
5865.265,0.09351158,
5863.336,0.09627125,
5861.407,0.09915762,
5859.478,0.1020394,
5857.550,0.1049337,
5855.621,0.107942,
5853.692,0.1111651,
5851.763,0.114479,
5849.835,0.1176273,
5847.906,0.1206364,
5845.977,0.1236981,
5844.049,0.1267996,
5842.120,0.1298083,
5840.191,0.1327195,
5838.262,0.1357291,
5836.334,0.1389211,
5834.405,0.141996,
5832.476,0.1446939,
5830.547,0.1470684,
5828.619,0.1492987,
5826.690,0.1515152,
5824.761,0.153538,
5822.832,0.1551784,
5820.904,0.1566285,
5818.975,0.1579649,
5817.046,0.1589389,
5815.118,0.1593901,
5813.189,0.159437,
5811.260,0.1593427,
5809.331,0.1591266,
5807.403,0.1585037,
5805.474,0.1573632,
5803.545,0.1559007,
5801.616,0.1542127,
5799.688,0.1522046,
5797.759,0.1498691,
5795.830,0.1472291,
5793.902,0.1443467,
5791.973,0.1414123,
5790.044,0.138366,
5788.115,0.134973,
5786.187,0.1313823,
5784.258,0.1279115,
5782.329,0.1245021,
5780.400,0.1209796,
5778.472,0.1174486,
5776.543,0.1139796,
5774.614,0.1104867,
5772.686,0.1069694,
5770.757,0.1034876,
5768.828,0.1001046,
5766.899,0.09686012,
5764.971,0.09371986,
5763.042,0.09066812,
5761.113,0.08777609,
5759.184,0.08503959,
5757.256,0.08238304,
5755.327,0.07974328,
5753.398,0.07705288,
5751.470,0.07453625,
5749.541,0.07246257,
5747.612,0.07055023,
5745.683,0.06849044,
5743.755,0.06648552,
5741.826,0.0647569,
5739.897,0.06315298,
5737.968,0.0614888,
5736.040,0.05985684,
5734.111,0.05833735,
5732.182,0.05691788,
5730.254,0.05575719,
5728.325,0.05490158,
5726.396,0.05409506,
5724.467,0.05319335,
5722.539,0.05232404,
5720.610,0.05158018,
5718.681,0.05089228,
5716.752,0.05031529,
5714.824,0.04991556,
5712.895,0.04950607,
5710.966,0.04905024,
5709.037,0.04872685,
5707.109,0.04854975,
5705.180,0.04842369,
5703.251,0.04834444,
5701.323,0.04838812,
5699.394,0.04850709,
5697.465,0.04857004,
5695.536,0.04866929,
5693.608,0.04902958,
5691.679,0.0496249,
5689.750,0.05022768,
5687.821,0.05073241,
5685.893,0.05119091,
5683.964,0.05171004,
5682.035,0.05235035,
5680.107,0.05310133,
5678.178,0.05393862,
5676.249,0.05486145,
5674.320,0.05595826,
5672.392,0.05725307,
5670.463,0.05857199,
5668.534,0.05978466,
5666.605,0.06105972,
5664.677,0.06265105,
5662.748,0.06444455,
5660.819,0.06620324,
5658.891,0.0680794,
5656.962,0.0702545,
5655.033,0.07253215,
5653.104,0.07471368,
5651.176,0.07686953,
5649.247,0.07917449,
5647.318,0.08170358,
5645.389,0.08437008,
5643.461,0.08711942,
5641.532,0.0899538,
5639.603,0.09284491,
5637.675,0.09582853,
5635.746,0.09887875,
5633.817,0.1019546,
5631.888,0.105186,
5629.960,0.1085686,
5628.031,0.111949,
5626.102,0.1153633,
5624.173,0.1188713,
5622.245,0.1224023,
5620.316,0.1258913,
5618.387,0.1292906,
5616.459,0.132629,
5614.530,0.13594,
5612.601,0.1391518,
5610.672,0.1422765,
5608.744,0.1453224,
5606.815,0.1481743,
5604.886,0.1507778,
5602.957,0.1531537,
5601.029,0.1553713,
5599.100,0.1574657,
5597.171,0.1592909,
5595.242,0.1606775,
5593.314,0.1616366,
5591.385,0.1622641,
5589.456,0.1625988,
5587.528,0.1626246,
5585.599,0.1622787,
5583.670,0.1615135,
5581.741,0.1603183,
5579.813,0.1586613,
5577.884,0.1566084,
5575.955,0.1542595,
5574.026,0.1515973,
5572.098,0.1486724,
5570.169,0.1456018,
5568.240,0.1423769,
5566.312,0.1389035,
5564.383,0.1351559,
5562.454,0.1313032,
5560.525,0.127544,
5558.597,0.123838,
5556.668,0.1200576,
5554.739,0.116194,
5552.810,0.1123403,
5550.882,0.1086157,
5548.953,0.1049983,
5547.024,0.1014083,
5545.096,0.09793742,
5543.167,0.09462113,
5541.238,0.09131354,
5539.309,0.0880105,
5537.381,0.08487331,
5535.452,0.08199401,
5533.523,0.07930516,
5531.594,0.07666063,
5529.666,0.07406569,
5527.737,0.07162152,
5525.808,0.06934986,
5523.880,0.06724372,
5521.951,0.0652654,
5520.022,0.06340908,
5518.093,0.06171262,
5516.165,0.06011374,
5514.236,0.05849669,
5512.307,0.05685449,
5510.378,0.05534825,
5508.450,0.05409593,
5506.521,0.05297563,
5504.592,0.05183744,
5502.663,0.05075581,
5500.735,0.04989174,
5498.806,0.04920297,
5496.877,0.04850919,
5494.949,0.04777392,
5493.020,0.04714605,
5491.091,0.04667539,
5489.162,0.04621759,
5487.234,0.0457291,
5485.305,0.04535112,
5483.376,0.04520502,
5481.447,0.04518679,
5479.519,0.04507557,
5477.590,0.04491303,
5475.661,0.0449238,
5473.733,0.0451459,
5471.804,0.04541239,
5469.875,0.04561325,
5467.946,0.0458283,
5466.018,0.04617587,
5464.089,0.04666128,
5462.160,0.04720721,
5460.231,0.04782725,
5458.303,0.04863467,
5456.374,0.04957475,
5454.445,0.05045917,
5452.517,0.05123928,
5450.588,0.05203998,
5448.659,0.05303066,
5446.730,0.054236,
5444.802,0.05554764,
5442.873,0.05697178,
5440.944,0.05861403,
5439.015,0.0604237,
5437.087,0.06218211,
5435.158,0.06386813,
5433.229,0.06575967,
5431.301,0.06797214,
5429.372,0.07031754,
5427.443,0.07264889,
5425.514,0.07506692,
5423.586,0.077765,
5421.657,0.08066113,
5419.728,0.08354136,
5417.799,0.08649077,
5415.871,0.08964566,
5413.942,0.09288637,
5412.013,0.09612635,
5410.085,0.09947494,
5408.156,0.1029947,
5406.227,0.1066144,
5404.298,0.1102458,
5402.370,0.1138378,
5400.441,0.1174449,
5398.512,0.1211507,
5396.583,0.1248871,
5394.655,0.1285234,
5392.726,0.1320575,
5390.797,0.1355531,
5388.868,0.1389759,
5386.940,0.142313,
5385.011,0.1456242,
5383.082,0.1488277,
5381.154,0.1517809,
5379.225,0.1544523,
5377.296,0.1568808,
5375.367,0.1591257,
5373.439,0.1611677,
5371.510,0.1628803,
5369.581,0.1641334,
5367.652,0.1648633,
5365.724,0.1651432,
5363.795,0.1650993,
5361.866,0.1646618,
5359.938,0.1636733,
5358.009,0.1621714,
5356.080,0.1603233,
5354.151,0.158219,
5352.223,0.1557573,
5350.294,0.152811,
5348.365,0.1494548,
5346.436,0.1458813,
5344.508,0.1422417,
5342.579,0.1384755,
5340.650,0.1344307,
5338.722,0.1302738,
5336.793,0.1262805,
5334.864,0.1223407,
5332.935,0.1182048,
5331.007,0.1139685,
5329.078,0.1099066,
5327.149,0.1060542,
5325.220,0.1022718,
5323.292,0.09853816,
5321.363,0.09493618,
5319.434,0.09143938,
5317.506,0.08794463,
5315.577,0.08450649,
5313.648,0.08130833,
5311.719,0.07837078,
5309.791,0.07551889,
5307.862,0.0726648,
5305.933,0.06993533,
5304.004,0.06751862,
5302.076,0.06538968,
5300.147,0.06332494,
5298.218,0.0612423,
5296.290,0.05925453,
5294.361,0.05745345,
5292.432,0.05580502,
5290.503,0.05422027,
5288.575,0.05270755,
5286.646,0.05136068,
5284.717,0.05018457,
5282.788,0.04906426,
5280.860,0.04794543,
5278.931,0.04695319,
5277.002,0.0461668,
5275.073,0.04540216,
5273.145,0.04456269,
5271.216,0.04386526,
5269.287,0.04343526,
5267.359,0.04311765,
5265.430,0.04269685,
5263.501,0.04217254,
5261.572,0.04177614,
5259.644,0.04157943,
5257.715,0.04142068,
5255.786,0.04123886,
5253.857,0.04113911,
5251.929,0.04120677,
5250.000,0.04137222,
5248.071,0.04149611,
5246.143,0.04160676,
5244.214,0.0418959,
5242.285,0.04239639,
5240.356,0.0428932,
5238.428,0.0432722,
5236.499,0.04371762,
5234.570,0.04436621,
5232.641,0.04509418,
5230.713,0.04582706,
5228.784,0.04663161,
5226.855,0.04760771,
5224.927,0.0487987,
5222.998,0.05003645,
5221.069,0.0512034,
5219.140,0.05247618,
5217.212,0.05398554,
5215.283,0.05564077,
5213.354,0.05732419,
5211.425,0.0590426,
5209.497,0.06093824,
5207.568,0.06306245,
5205.639,0.06528334,
5203.711,0.06756607,
5201.782,0.07005265,
5199.853,0.07277156,
5197.924,0.07555979,
5195.996,0.07836746,
5194.067,0.08134238,
5192.138,0.08456205,
5190.209,0.08793863,
5188.281,0.09130005,
5186.352,0.09458405,
5184.423,0.09801114,
5182.495,0.1017085,
5180.566,0.1054364,
5178.637,0.1090692,
5176.708,0.112792,
5174.780,0.1166672,
5172.851,0.1205259,
5170.922,0.1242786,
5168.993,0.1279915,
5167.065,0.131732,
5165.136,0.1354647,
5163.207,0.1390467,
5161.278,0.1424405,
5159.350,0.1457813,
5157.421,0.1490518,
5155.492,0.1520277,
5153.564,0.1546139,
5151.635,0.1569214,
5149.706,0.1590142,
5147.777,0.1608021,
5145.849,0.162169,
5143.920,0.1630456,
5141.991,0.1634321,
5140.062,0.1633815,
5138.134,0.1628843,
5136.205,0.1618603,
5134.276,0.1602864,
5132.348,0.1582728,
5130.419,0.1559307,
5128.490,0.1531919,
5126.561,0.149964,
5124.633,0.146387,
5122.704,0.1426521,
5120.775,0.1387194,
5118.846,0.1345115,
5116.918,0.13015,
5114.989,0.125778,
5113.060,0.1214013,
5111.132,0.1169948,
5109.203,0.1125987,
5107.274,0.1083056,
5105.345,0.1041528,
5103.417,0.1000384,
5101.488,0.09592793,
5099.559,0.09202077,
5097.630,0.0884325,
5095.702,0.08498807,
5093.773,0.08154431,
5091.844,0.07819883,
5089.916,0.07507144,
5087.987,0.072142,
5086.058,0.0693468,
5084.129,0.06667711,
5082.201,0.06420866,
5080.272,0.06196577,
5078.343,0.05979758,
5076.414,0.05763167,
5074.486,0.05562193,
5072.557,0.0538961,
5070.628,0.05235821,
5068.700,0.05078932,
5066.771,0.04916978,
5064.842,0.04772825,
5062.913,0.04653651,
5060.985,0.04540981,
5059.056,0.04429016,
5057.127,0.04332223,
5055.198,0.04255513,
5053.270,0.0418474,
5051.341,0.04105293,
5049.412,0.04022902,
5047.483,0.03960209,
5045.555,0.03922415,
5043.626,0.03887324,
5041.697,0.038424,
5039.769,0.03804965,
5037.840,0.03789776,
5035.911,0.03783501,
5033.982,0.03770593,
5032.054,0.03755102,
5030.125,0.03748944,
5028.196,0.03754949,
5026.267,0.03762913,
5024.339,0.0376925,
5022.410,0.03785847,
5020.481,0.03817067,
5018.553,0.03854812,
5016.624,0.03893023,
5014.695,0.03933357,
5012.766,0.03985044,
5010.838,0.04047408,
5008.909,0.04109544,
5006.980,0.04175413,
5005.051,0.04256806,
5003.123,0.04355096,
5001.194,0.04459475,
4999.265,0.04559715,
4997.337,0.0466851,
4995.408,0.04802858,
4993.479,0.04953028,
4991.550,0.05105969,
4989.622,0.05270117,
4987.693,0.05454177,
4985.764,0.05652058,
4983.835,0.05858389,
4981.907,0.06072981,
4979.978,0.06298639,
4978.049,0.06545747,
4976.121,0.06816484,
4974.192,0.07099468,
4972.263,0.07392331,
4970.334,0.07704413,
4968.406,0.08036324,
4966.477,0.08375644,
4964.548,0.08717531,
4962.619,0.09071299,
4960.691,0.09444288,
4958.762,0.09831969,
4956.833,0.1022101,
4954.904,0.1060881,
4952.976,0.1100773,
4951.047,0.1141935,
4949.118,0.1183011,
4947.190,0.1222996,
4945.261,0.1262555,
4943.332,0.1302971,
4941.403,0.1343496,
4939.475,0.1382308,
4937.546,0.1419169,
4935.617,0.1455046,
4933.688,0.1490465,
4931.760,0.1524384,
4929.831,0.1554848,
4927.902,0.158105,
4925.974,0.1603822,
4924.045,0.1623696,
4922.116,0.1639251,
4920.187,0.1648978,
4918.259,0.1653405,
4916.330,0.1652995,
4914.401,0.164649,
4912.472,0.1633219,
4910.544,0.1614462,
4908.615,0.159157,
4906.686,0.1563941,
4904.758,0.1530286,
4902.829,0.1492049,
4900.900,0.1452048,
4898.971,0.1410286,
4897.043,0.13657,
4895.114,0.1319159,
4893.185,0.1271858,
4891.256,0.1224207,
4889.328,0.117673,
4887.399,0.1129635,
4885.470,0.1082648,
4883.542,0.1036533,
4881.613,0.09921534,
4879.684,0.09490484,
4877.755,0.0907346,
4875.827,0.08678165,
4873.898,0.08301121,
4871.969,0.07939795,
4870.040,0.07597754,
4868.112,0.07270576,
4866.183,0.0695599,
4864.254,0.06661502,
4862.326,0.06385626,
4860.397,0.06122756,
4858.468,0.05877984,
4856.539,0.05650625,
4854.611,0.05432878,
4852.682,0.05227044,
4850.753,0.05039902,
4848.824,0.04874716,
4846.896,0.04725257,
4844.967,0.0457577,
4843.038,0.04423434,
4841.109,0.04284787,
4839.181,0.04169618,
4837.252,0.04067345,
4835.323,0.03967464,
4833.395,0.03875654,
4831.466,0.03799028,
4829.537,0.03731216,
4827.608,0.03662072,
4825.680,0.03593174,
4823.751,0.03534603,
4821.822,0.03490287,
4819.893,0.03453761,
4817.965,0.03419209,
4816.036,0.03390746,
4814.107,0.03373457,
4812.179,0.03362653,
4810.250,0.03350971,
4808.321,0.03340004,
4806.392,0.033385,
4804.464,0.03347782,
4802.535,0.03355126,
4800.606,0.03356327,
4798.677,0.03368566,
4796.749,0.03397861,
4794.820,0.03429445,
4792.891,0.03458503,
4790.963,0.03495296,
4789.034,0.0354659,
4787.105,0.03603721,
4785.176,0.03656441,
4783.248,0.03713228,
4781.319,0.03789141,
4779.390,0.0388283,
4777.461,0.03978529,
4775.533,0.04072598,
4773.604,0.04180539,
4771.675,0.04308704,
4769.747,0.04446616,
4767.818,0.04587518,
4765.889,0.04736403,
4763.960,0.04902342,
4762.032,0.05088299,
4760.103,0.05288688,
4758.174,0.05496882,
4756.245,0.05716668,
4754.317,0.05958287,
4752.388,0.062192,
4750.459,0.06491864,
4748.531,0.06781179,
4746.602,0.0709118,
4744.673,0.07416306,
4742.744,0.07751282,
4740.816,0.08095333,
4738.887,0.08451992,
4736.958,0.08824528,
4735.029,0.09209663,
4733.101,0.09602051,
4731.172,0.1000211,
4729.243,0.1041289,
4727.314,0.1083232,
4725.386,0.1125212,
4723.457,0.1166699,
4721.528,0.1208482,
4719.600,0.125116,
4717.671,0.1293569,
4715.742,0.1334676,
4713.813,0.13745,
4711.885,0.1412699,
4709.956,0.1448877,
4708.027,0.1482872,
4706.098,0.1513963,
4704.170,0.1541422,
4702.241,0.1564704,
4700.312,0.1582745,
4698.384,0.1594552,
4696.455,0.1600185,
4694.526,0.1600321,
4692.597,0.1594571,
4690.669,0.1581482,
4688.740,0.1561098,
4686.811,0.1535371,
4684.882,0.1505572,
4682.954,0.1471407,
4681.025,0.1432684,
4679.096,0.1390881,
4677.168,0.1348026,
4675.239,0.1304041,
4673.310,0.1258001,
4671.381,0.1211136,
4669.453,0.1165248,
4667.524,0.1120353,
4665.595,0.1075558,
4663.666,0.1030282,
4661.738,0.09852552,
4659.809,0.09420698,
4657.880,0.09006846,
4655.952,0.08599824,
4654.023,0.08202906,
4652.094,0.07823578,
4650.165,0.07460447,
4648.237,0.07112346,
4646.308,0.06779028,
4644.379,0.06464289,
4642.450,0.06176297,
4640.522,0.05907296,
4638.593,0.05644352,
4636.664,0.0539555,
4634.736,0.05168622,
4632.807,0.04955966,
4630.878,0.04755433,
4628.949,0.04570116,
4627.021,0.04399611,
4625.092,0.04245469,
4623.163,0.04103755,
4621.234,0.03965765,
4619.306,0.03838658,
4617.377,0.0373466,
4615.448,0.03643684,
4613.519,0.035492,
4611.591,0.03455573,
4609.662,0.03376349,
4607.733,0.03310152,
4605.805,0.03245073,
4603.876,0.03178801,
4601.947,0.03121517,
4600.018,0.03081249,
4598.090,0.03051155,
4596.161,0.03019367,
4594.232,0.02990017,
4592.303,0.0297299,
4590.375,0.02961168,
4588.446,0.02943422,
4586.517,0.0292454,
4584.589,0.02916001,
4582.660,0.02918788,
4580.731,0.02924505,
4578.802,0.02930542,
4576.874,0.02944121,
4574.945,0.02967858,
4573.016,0.02994176,
4571.087,0.03020689,
4569.159,0.03053968,
4567.230,0.03094699,
4565.301,0.03136652,
4563.373,0.03180148,
4561.444,0.03231213,
4559.515,0.03290914,
4557.586,0.03359949,
4555.658,0.03439398,
4553.729,0.03525133,
4551.800,0.03617016,
4549.871,0.03719448,
4547.943,0.03833369,
4546.014,0.03957352,
4544.085,0.04088535,
4542.157,0.04230119,
4540.228,0.04390728,
4538.299,0.04567569,
4536.370,0.04752032,
4534.442,0.0494915,
4532.513,0.05170223,
4530.584,0.05413994,
4528.655,0.05671855,
4526.727,0.05943874,
4524.798,0.06234115,
4522.869,0.06541183,
4520.940,0.06865018,
4519.012,0.07207432,
4517.083,0.07565612,
4515.154,0.07939056,
4513.226,0.08330113,
4511.297,0.08732705,
4509.368,0.09140982,
4507.439,0.09562159,
4505.511,0.1000235,
4503.582,0.1045557,
4501.653,0.1091258,
4499.724,0.1136978,
4497.796,0.1183074,
4495.867,0.1229418,
4493.938,0.1274956,
4492.010,0.1319441,
4490.081,0.1363264,
4488.152,0.1405918,
4486.223,0.1446383,
4484.295,0.1483701,
4482.366,0.1517372,
4480.437,0.1547316,
4478.508,0.1572568,
4476.580,0.1591639,
4474.651,0.1603929,
4472.722,0.1609302,
4470.794,0.1607382,
4468.865,0.1597989,
4466.936,0.1581517,
4465.007,0.1558221,
4463.079,0.1527964,
4461.150,0.1491141,
4459.221,0.1448884,
4457.292,0.1402467,
4455.364,0.1353,
4453.435,0.1301305,
4451.506,0.124813,
4449.578,0.1194411,
4447.649,0.114091,
4445.720,0.1087698,
4443.791,0.1034777,
4441.863,0.09828109,
4439.934,0.09326121,
4438.005,0.08847658,
4436.076,0.08394206,
4434.148,0.07958412,
4432.219,0.07535492,
4430.290,0.07134179,
4428.362,0.06761722,
4426.433,0.06413081,
4424.504,0.06082104,
4422.575,0.0576835,
4420.647,0.05475638,
4418.718,0.05208781,
4416.789,0.04963454,
4414.860,0.0473007,
4412.932,0.04509416,
4411.003,0.04307359,
4409.074,0.04125548,
4407.145,0.03962148,
4405.217,0.03810118,
4403.288,0.03665163,
4401.359,0.035329,
4399.431,0.03414481,
4397.502,0.03302242,
4395.573,0.03196903,
4393.644,0.03104272,
4391.716,0.03020408,
4389.787,0.02940579,
4387.858,0.02867786,
4385.929,0.02806881,
4384.001,0.02758253,
4382.072,0.02712657,
4380.143,0.02663409,
4378.215,0.02620234,
4376.286,0.02589189,
4374.357,0.0255922,
4372.428,0.0252518,
4370.500,0.02498067,
4368.571,0.02483375,
4366.642,0.02473115,
4364.713,0.02463273,
4362.785,0.02457386,
4360.856,0.0245605,
4358.927,0.02457456,
4356.999,0.02463026,
4355.070,0.02473668,
4353.141,0.02485769,
4351.212,0.02498896,
4349.284,0.02515742,
4347.355,0.02536486,
4345.426,0.02562192,
4343.497,0.02593715,
4341.569,0.02629246,
4339.640,0.02666331,
4337.711,0.02706101,
4335.783,0.02754731,
4333.854,0.02815844,
4331.925,0.02887104,
4329.996,0.02965127,
4328.068,0.03046948,
4326.139,0.03131624,
4324.210,0.03224026,
4322.281,0.03326797,
4320.353,0.03437176,
4318.424,0.03559443,
4316.495,0.03700327,
4314.567,0.03855554,
4312.638,0.04016605,
4310.709,0.04184842,
4308.780,0.04370475,
4306.852,0.04576905,
4304.923,0.04797541,
4302.994,0.05029663,
4301.065,0.05277792,
4299.137,0.05545463,
4297.208,0.05831535,
4295.279,0.06129489,
4293.350,0.06434175,
4291.422,0.06749769,
4289.493,0.07079442,
4287.564,0.07418044,
4285.636,0.07764196,
4283.707,0.08124892,
4281.778,0.08501456,
4279.849,0.08886787,
4277.921,0.09282598,
4275.992,0.09696672,
4274.063,0.1012313,
4272.134,0.1054697,
4270.206,0.1096359,
4268.277,0.1138091,
4266.348,0.1180364,
4264.420,0.1222514,
4262.491,0.1263731,
4260.562,0.1303319,
4258.633,0.1339902,
4256.705,0.1372521,
4254.776,0.1401196,
4252.847,0.1425022,
4250.918,0.1442236,
4248.990,0.1451878,
4247.061,0.1453825,
4245.132,0.1447969,
4243.204,0.1434012,
4241.275,0.1412068,
4239.346,0.1382921,
4237.417,0.1347383,
4235.489,0.1305802,
4233.560,0.1259156,
4231.631,0.120961,
4229.702,0.1158764,
4227.774,0.1107124,
4225.845,0.105511,
4223.916,0.1003456,
4221.988,0.09530403,
4220.059,0.09044278,
4218.130,0.08578405,
4216.201,0.08132765,
4214.273,0.07704645,
4212.344,0.07293266,
4210.415,0.06901782,
4208.486,0.06533384,
4206.558,0.06188778,
4204.629,0.05863026,
4202.700,0.0554867,
4200.772,0.05246584,
4198.843,0.04964899,
4196.914,0.04709642,
4194.985,0.04479324,
4193.057,0.04263886,
4191.128,0.04055937,
4189.199,0.03859264,
4187.270,0.03679345,
4185.342,0.03515384,
4183.413,0.03365193,
4181.484,0.03230331,
4179.555,0.03110979,
4177.627,0.03002981,
4175.698,0.02901945,
4173.769,0.0280623,
4171.841,0.02720634,
4169.912,0.02647263,
4167.983,0.02575964,
4166.054,0.02502465,
4164.126,0.02437985,
4162.197,0.02388828,
4160.268,0.02348133,
4158.339,0.02308374,
4156.411,0.02267248,
4154.482,0.02229439,
4152.553,0.02200917,
4150.625,0.02176738,
4148.696,0.02150932,
4146.767,0.02126733,
4144.838,0.02108699,
4142.910,0.0209901,
4140.981,0.02095767,
4139.052,0.02093953,
4137.123,0.02090453,
4135.195,0.02086437,
4133.266,0.02084798,
4131.337,0.02086933,
4129.409,0.02094844,
4127.480,0.02110044,
4125.551,0.0213252,
4123.622,0.02160547,
4121.694,0.02189237,
4119.765,0.02216532,
4117.836,0.02245238,
4115.907,0.02276761,
4113.979,0.02312796,
4112.050,0.02358332,
4110.121,0.02410992,
4108.193,0.02463695,
4106.264,0.02521488,
4104.335,0.02590502,
4102.406,0.02667767,
4100.478,0.02754541,
4098.549,0.02852217,
4096.620,0.02954565,
4094.691,0.03062502,
4092.763,0.03185123,
4090.834,0.03324227,
4088.905,0.03476057,
4086.977,0.0363935,
4085.048,0.03816791,
4083.119,0.04012829,
4081.190,0.04228049,
4079.262,0.04458817,
4077.333,0.04703573,
4075.404,0.04966716,
4073.475,0.05252795,
4071.547,0.05562834,
4069.618,0.05896862,
4067.689,0.06252825,
4065.760,0.06627945,
4063.832,0.07020176,
4061.903,0.07426963,
4059.974,0.07846402,
4058.046,0.08277419,
4056.117,0.08718334,
4054.188,0.09166487,
4052.259,0.09621372,
4050.331,0.1008294,
4048.402,0.1054427,
4046.473,0.1099843,
4044.544,0.1144561,
4042.616,0.1188529,
4040.687,0.1231385,
4038.758,0.1272472,
4036.830,0.1310879,
4034.901,0.1345803,
4032.972,0.1376039,
4031.043,0.1399948,
4029.115,0.1416574,
4027.186,0.1425711,
4025.257,0.1426677,
4023.328,0.1418532,
4021.400,0.140142,
4019.471,0.1376243,
4017.542,0.1343986,
4015.614,0.1305913,
4013.685,0.1263377,
4011.756,0.1217316,
4009.827,0.1168342,
4007.899,0.1117166,
4005.970,0.1064731,
4004.041,0.1012025,
4002.112,0.095964,
4000.184,0.09079282,
3998.255,0.08572209,
3996.326,0.08078609,
3994.398,0.07604819,
3992.469,0.07153445,
3990.540,0.06722061,
3988.611,0.0631097,
3986.683,0.05922649,
3984.754,0.05558329,
3982.825,0.0521698,
3980.896,0.04898531,
3978.968,0.04603675,
3977.039,0.04328128,
3975.110,0.04068829,
3973.181,0.03834158,
3971.253,0.03632127,
3969.324,0.03454909,
3967.395,0.03287141,
3965.467,0.03124112,
3963.538,0.02974821,
3961.609,0.02845788,
3959.680,0.02730854,
3957.752,0.02619753,
3955.823,0.02511214,
3953.894,0.0241254,
3951.965,0.02329841,
3950.037,0.02262838,
3948.108,0.02204623,
3946.179,0.02149787,
3944.251,0.02096332,
3942.322,0.02043835,
3940.393,0.0199454,
3938.464,0.01950544,
3936.536,0.01912997,
3934.607,0.01877811,
3932.678,0.01843649,
3930.749,0.01815609,
3928.821,0.0178843,
3926.892,0.0175778,
3924.963,0.017363,
3923.035,0.01730845,
3921.106,0.01729327,
3919.177,0.017259,
3917.248,0.01725107,
3915.320,0.01723516,
3913.391,0.01718312,
3911.462,0.01717661,
3909.533,0.01725163,
3907.605,0.01732324,
3905.676,0.01732976,
3903.747,0.01730348,
3901.819,0.01736891,
3899.890,0.01760224,
3897.961,0.01792059,
3896.032,0.01824063,
3894.104,0.01851884,
3892.175,0.01877676,
3890.246,0.01911335,
3888.317,0.01951436,
3886.389,0.01991007,
3884.460,0.02036663,
3882.531,0.02093842,
3880.603,0.02156981,
3878.674,0.02224513,
3876.745,0.02297241,
3874.816,0.02375413,
3872.888,0.02460131,
3870.959,0.02555565,
3869.030,0.02667494,
3867.101,0.02792226,
3865.173,0.02930089,
3863.244,0.03083565,
3861.315,0.03247683,
3859.386,0.03423943,
3857.458,0.03609762,
3855.529,0.03805111,
3853.600,0.0404135,
3851.672,0.04335371,
3849.743,0.04654039,
3847.814,0.04978606,
3845.885,0.05316497,
3843.957,0.05673686,
3842.028,0.06045807,
3840.099,0.06431723,
3838.170,0.06860416,
3836.242,0.0734144,
3834.313,0.07837962,
3832.384,0.0833497,
3830.456,0.08841307,
3828.527,0.09352203,
3826.598,0.0986098,
3824.669,0.103523,
3822.741,0.1082788,
3820.812,0.1131642,
3818.883,0.1178728,
3816.954,0.1222791,
3815.026,0.1268383,
3813.097,0.131128,
3811.168,0.134367,
3809.240,0.1365082,
3807.311,0.1380334,
3805.382,0.138905,
3803.453,0.1385183,
3801.525,0.1372117,
3799.596,0.1354368,
3797.667,0.132715,
3795.738,0.1289525,
3793.810,0.1244389,
3791.881,0.1192835,
3789.952,0.1137337,
3788.024,0.1080457,
3786.095,0.1022628,
3784.166,0.09639919,
3782.237,0.09057928,
3780.309,0.08494905,
3778.380,0.07960584,
3776.451,0.07446076,
3774.522,0.06945742,
3772.594,0.06474117,
3770.665,0.06033377,
3768.736,0.05622962,
3766.808,0.05244837,
3764.879,0.04895917,
3762.950,0.04574029,
3761.021,0.04271802,
3759.093,0.03987337,
3757.164,0.03727473,
3755.235,0.03492292,
3753.306,0.0327133,
3751.378,0.0306438,
3749.449,0.02884408,
3747.520,0.02726355,
3745.591,0.02575307,
3743.663,0.02440508,
3741.734,0.02329852,
3739.805,0.02225084,
3737.877,0.02123634,
3735.948,0.02035211,
3734.019,0.01956039,
3732.090,0.01886509,
3730.162,0.0182965,
3728.233,0.01779064,
3726.304,0.0172769,
3724.375,0.01676951,
3722.447,0.01629897,
3720.518,0.01587812,
3718.589,0.01551575,
3716.661,0.01518525,
3714.732,0.01486299,
3712.803,0.01456372,
3710.874,0.01434871,
3708.946,0.01421214,
3707.017,0.01406369,
3705.088,0.01389637,
3703.159,0.01378166,
3701.231,0.01372188,
3699.302,0.01363174,
3697.373,0.01352255,
3695.445,0.01348022,
3693.516,0.01348785,
3691.587,0.01347216,
3689.658,0.01345588,
3687.730,0.01354131,
3685.801,0.01373364,
3683.872,0.01394445,
3681.943,0.01409691,
3680.015,0.01418767,
3678.086,0.01429041,
3676.157,0.01447589,
3674.229,0.01474446,
3672.300,0.01502662,
3670.371,0.01534137,
3668.442,0.01575573,
3666.514,0.0162111,
3664.585,0.01661614,
3662.656,0.01697721,
3660.727,0.01737743,
3658.799,0.01784561,
3656.870,0.01837882,
3654.941,0.01899846,
3653.013,0.0196673,
3651.084,0.02036459,
3649.155,0.02114674,
3647.226,0.02204386,
3645.298,0.02305284,
3643.369,0.02418424,
3641.440,0.02540295,
3639.511,0.02666591,
3637.583,0.02802801,
3635.654,0.02958435,
3633.725,0.03130917,
3631.796,0.03305364,
3629.868,0.03487235,
3627.939,0.03701266,
3626.010,0.03945939,
3624.082,0.04201939,
3622.153,0.04461116,
3620.224,0.04729578,
3618.295,0.05021742,
3616.367,0.05334815,
3614.438,0.05653843,
3612.509,0.05979529,
3610.580,0.06319229,
3608.652,0.06676891,
3606.723,0.07051738,
3604.794,0.07429039,
3602.866,0.07795019,
3600.937,0.08151318,
3599.008,0.08498198,
3597.079,0.08827256,
3595.151,0.09138127,
3593.222,0.0943094,
3591.293,0.09685364,
3589.364,0.09886876,
3587.436,0.1004462,
3585.507,0.1015734,
3583.578,0.1020623,
3581.650,0.1017811,
3579.721,0.1006852,
3577.792,0.09882969,
3575.863,0.09637462,
3573.935,0.09341448,
3572.006,0.08990105,
3570.077,0.08584382,
3568.148,0.0815042,
3566.220,0.07721338,
3564.291,0.07301284,
3562.362,0.06874736,
3560.434,0.06444371,
3558.505,0.06029415,
3556.576,0.05637355,
3554.647,0.05261318,
3552.719,0.04897627,
3550.790,0.04553442,
3548.861,0.04237338,
3546.932,0.03949194,
3545.004,0.03683324,
3543.075,0.03435637,
3541.146,0.03207651,
3539.217,0.03001381,
3537.289,0.02811956,
3535.360,0.02634634,
3533.431,0.02472585,
3531.503,0.02330393,
3529.574,0.02204336,
3527.645,0.02086114,
3525.716,0.01974611,
3523.788,0.01875542,
3521.859,0.01789708,
3519.930,0.01710023,
3518.001,0.01634383,
3516.073,0.01569831,
3514.144,0.01516494,
3512.215,0.01464915,
3510.287,0.01412465,
3508.358,0.01365113,
3506.429,0.01325552,
3504.500,0.01290185,
3502.572,0.01255181,
3500.643,0.01221394,
3498.714,0.0119352,
3496.785,0.01171579,
3494.857,0.01150106,
3492.928,0.01127715,
3490.999,0.01107216,
3489.071,0.01091439,
3487.142,0.01079919,
3485.213,0.01067603,
3483.284,0.01053213,
3481.356,0.0104337,
3479.427,0.01041839,
3477.498,0.01041795,
3475.569,0.01036668,
3473.641,0.01030954,
3471.712,0.0103072,
3469.783,0.01033322,
3467.855,0.01034431,
3465.926,0.01035144,
3463.997,0.01039371,
3462.068,0.01048275,
3460.140,0.01057468,
3458.211,0.01064004,
3456.282,0.01073501,
3454.353,0.0109206,
3452.425,0.01115821,
3450.496,0.01137352,
3448.567,0.01157711,
3446.639,0.01182555,
3444.710,0.01211751,
3442.781,0.01240936,
3440.852,0.01269701,
3438.924,0.01304992,
3436.995,0.01351384,
3435.066,0.01402092,
3433.137,0.01449505,
3431.209,0.01498213,
3429.280,0.01557962,
3427.351,0.0162714,
3425.422,0.01696956,
3423.494,0.01765862,
3421.565,0.01838442,
3419.636,0.01917803,
3417.708,0.01999473,
3415.779,0.02075441,
3413.850,0.02148394,
3411.921,0.02226943,
3409.993,0.02310196,
3408.064,0.02394457,
3406.135,0.02485099,
3404.206,0.02595029,
3402.278,0.02734537,
3400.349,0.02901989,
3398.420,0.03094337,
3396.492,0.03319966,
3394.563,0.03585804,
3392.634,0.03886452,
3390.705,0.04212984,
3388.777,0.045618,
3386.848,0.04934661,
3384.919,0.0533177,
3382.990,0.05745018,
3381.062,0.06161976,
3379.133,0.06580136,
3377.204,0.07004043,
3375.276,0.07422778,
3373.347,0.07816896,
3371.418,0.08182501,
3369.489,0.08518791,
3367.561,0.08811444,
3365.632,0.09045515,
3363.703,0.09213705,
3361.774,0.09310017,
3359.846,0.09327155,
3357.917,0.09257877,
3355.988,0.09099958,
3354.060,0.08865079,
3352.131,0.08571676,
3350.202,0.08227398,
3348.273,0.07836705,
3346.345,0.07414683,
3344.416,0.06980197,
3342.487,0.06547563,
3340.558,0.06121476,
3338.630,0.05700055,
3336.701,0.05290755,
3334.772,0.04907351,
3332.844,0.04550821,
3330.915,0.0421307,
3328.986,0.03892074,
3327.057,0.0359353,
3325.129,0.03322531,
3323.200,0.03075812,
3321.271,0.02847102,
3319.342,0.02637955,
3317.414,0.0245431,
3315.485,0.02292797,
3313.556,0.02142291,
3311.627,0.02000498,
3309.699,0.01875656,
3307.770,0.01770608,
3305.841,0.01675646,
3303.913,0.01582744,
3301.984,0.01496852,
3300.055,0.01424953,
3298.126,0.01363506,
3296.198,0.01303407,
3294.269,0.01244773,
3292.340,0.01195747,
3290.411,0.0115646,
3288.483,0.01119692,
3286.554,0.0108217,
3284.625,0.01047241,
3282.697,0.01019243,
3280.768,0.009957755,
3278.839,0.009709262,
3276.910,0.009459372,
3274.982,0.009279901,
3273.053,0.009166455,
3271.124,0.009034527,
3269.195,0.008862177,
3267.267,0.008715605,
3265.338,0.008634757,
3263.409,0.00857486,
3261.481,0.008490355,
3259.552,0.008405915,
3257.623,0.008375024,
3255.694,0.008383819,
3253.766,0.008354899,
3251.837,0.008296071,
3249.908,0.008301697,
3247.979,0.008368297,
3246.051,0.008405542,
3244.122,0.008392511,
3242.193,0.008396287,
3240.265,0.008489411,
3238.336,0.008647577,
3236.407,0.008774044,
3234.478,0.008850569,
3232.550,0.008956364,
3230.621,0.009155753,
3228.692,0.009412411,
3226.763,0.009633692,
3224.835,0.009828613,
3222.906,0.0101006,
3220.977,0.01045035,
3219.049,0.01078171,
3217.120,0.01109425,
3215.191,0.01147798,
3213.262,0.01195584,
3211.334,0.01246477,
3209.405,0.01297053,
3207.476,0.01352223,
3205.547,0.0141907,
3203.619,0.01498231,
3201.690,0.0158426,
3199.761,0.01676836,
3197.832,0.01785702,
3195.904,0.01915238,
3193.975,0.02057632,
3192.046,0.02210598,
3190.118,0.02384174,
3188.189,0.02584936,
3186.260,0.02807957,
3184.331,0.03048844,
3182.403,0.0331329,
3180.474,0.03609943,
3178.545,0.03937526,
3176.616,0.04284814,
3174.688,0.04646015,
3172.759,0.05026626,
3170.830,0.05430138,
3168.902,0.05849601,
3166.973,0.06275529,
3165.044,0.06705516,
3163.115,0.07139175,
3161.187,0.0756643,
3159.258,0.07969955,
3157.329,0.0833737,
3155.400,0.08664166,
3153.472,0.08939505,
3151.543,0.09138267,
3149.614,0.09238306,
3147.686,0.09233068,
3145.757,0.09124754,
3143.828,0.0891607,
3141.899,0.08609757,
3139.971,0.08218494,
3138.042,0.07768672,
3136.113,0.07284622,
3134.184,0.06778377,
3132.256,0.06263712,
3130.327,0.05764157,
3128.398,0.05294411,
3126.470,0.0485182,
3124.541,0.04431796,
3122.612,0.0403737,
3120.683,0.03675612,
3118.755,0.03348996,
3116.826,0.03052593,
3114.897,0.02782337,
3112.968,0.02540282,
3111.040,0.0232813,
3109.111,0.02140049,
3107.182,0.01968708,
3105.253,0.01814281,
3103.325,0.01679999,
3101.396,0.01563331,
3099.467,0.01457664,
3097.539,0.0135993,
3095.610,0.01273609,
3093.681,0.01201439,
3091.752,0.01137831,
3089.824,0.01078054,
3087.895,0.01024297,
3085.966,0.009781216,
3084.037,0.009375259,
3082.109,0.008988306,
3080.180,0.008597691,
3078.251,0.008250331,
3076.323,0.00800903,
3074.394,0.00782258,
3072.465,0.007591235,
3070.536,0.007337604,
3068.608,0.007158483,
3066.679,0.007052077,
3064.750,0.006938571,
3062.821,0.006793758,
3060.893,0.006668395,
3058.964,0.006602123,
3057.035,0.006555995,
3055.107,0.006477892,
3053.178,0.006415196,
3051.249,0.006436738,
3049.320,0.006487141,
3047.392,0.006481123,
3045.463,0.006455677,
3043.534,0.006509858,
3041.605,0.006641394,
3039.677,0.006764837,
3037.748,0.006841325,
3035.819,0.006935576,
3033.891,0.007129937,
3031.962,0.007378405,
3030.033,0.007591557,
3028.104,0.007795835,
3026.176,0.008083559,
3024.247,0.008464998,
3022.318,0.008874618,
3020.389,0.009308008,
3018.461,0.009860235,
3016.532,0.01059407,
3014.603,0.01144067,
3012.675,0.01235092,
3010.746,0.01345855,
3008.817,0.01491023,
3006.888,0.01667031,
3004.960,0.01865757,
3003.031,0.02088774,
3001.102,0.02339052,
2999.173,0.02607544,
2997.245,0.02869253,
2995.316,0.03090356,
2993.387,0.03237404,
2991.458,0.03278045,
2989.530,0.03183335,
2987.601,0.02945522,
2985.672,0.02594909,
2983.744,0.0218763,
2981.815,0.0177779,
2979.886,0.01402019,
2977.957,0.01078749,
2976.029,0.008182374,
2974.100,0.006233348,
2972.171,0.004790423,
2970.242,0.003638481,
2968.314,0.002708278,
2966.385,0.002030608,
2964.456,0.001553007,
2962.528,0.001159667,
2960.599,0.0008252192,
2958.670,0.000609369,
2956.741,0.0005327626,
2954.813,0.0004798687,
2952.884,0.00037605,
2950.955,0.000262946,
2949.026,0.0002258686,
2947.098,0.0002287634,
2945.169,0.0001997657,
2943.240,0.0001383525,
2941.312,9.280157E-5,
2939.383,0.000150002,
2937.454,0.0001837908,
2935.525,0.0001461542,
2933.597,9.057103E-5,
2931.668,0.0001386391,
2929.739,0.0002470735,
2927.810,0.0003196421,
2925.882,0.0003752828,
2923.953,0.0004872299,
2922.024,0.0006823064,
2920.096,0.000911048,
2918.167,0.001147694,
2916.238,0.001412252,
2914.309,0.001738074,
2912.381,0.002084446,
2910.452,0.002362748,
2908.523,0.002575039,
2906.594,0.002828568,
2904.666,0.003166649,
2902.737,0.003509606,
2900.808,0.003821795,
2898.880,0.004179331,
2896.951,0.004635247,
2895.022,0.005102425,
2893.093,0.00547741,
2891.165,0.005796388,
2889.236,0.006114377,
2887.307,0.006335029,
2885.378,0.006309226,
2883.450,0.006005952,
2881.521,0.00551151,
2879.592,0.004931037,
2877.663,0.004302156,
2875.735,0.003609349,
2873.806,0.002897099,
2871.877,0.002268711,
2869.949,0.001765001,
2868.020,0.001367126,
2866.091,0.001082005,
2864.162,0.0009413699,
2862.234,0.0009647076,
2860.305,0.001123531,
2858.376,0.001397257,
2856.447,0.001827186,
2854.519,0.002548193,
2852.590,0.003672041,
2850.661,0.005199173,
2848.733,0.007152512,
2846.804,0.009613569,
2844.875,0.01250069,
2842.946,0.01546483,
2841.018,0.01803517,
2839.089,0.01980764,
2837.160,0.02057897,
2835.231,0.02038562,
2833.303,0.01948197,
2831.374,0.01826954,
2829.445,0.01711565,
2827.517,0.01616629,
2825.588,0.01535982,
2823.659,0.01461077,
2821.730,0.01388169,
2819.802,0.01314432,
2817.873,0.0123699,
2815.944,0.01151222,
2814.015,0.01058699,
2812.087,0.009730665,
2810.158,0.009019945,
2808.229,0.008382569,
2806.301,0.007773024,
2804.372,0.00724758,
2802.443,0.006842957,
2800.514,0.006519847,
2798.586,0.006218363,
2796.657,0.005917955,
2794.728,0.005665996,
2792.799,0.005501522,
2790.871,0.005374869,
2788.942,0.005218398,
2787.013,0.005052681,
2785.085,0.00493773,
2783.156,0.004855436,
2781.227,0.004746639,
2779.298,0.004617637,
2777.370,0.00453397,
2775.441,0.00451074,
2773.512,0.004483164,
2771.583,0.004419214,
2769.655,0.004367063,
2767.726,0.004361837,
2765.797,0.004368441,
2763.868,0.004360333,
2761.940,0.004361306,
2760.011,0.004408295,
2758.082,0.004493369,
2756.154,0.004552252,
2754.225,0.004572241,
2752.296,0.004629127,
2750.367,0.004744906,
2748.439,0.004849128,
2746.510,0.004927086,
2744.581,0.005039312,
2742.652,0.005209328,
2740.724,0.005396065,
2738.795,0.005556091,
2736.866,0.005698295,
2734.938,0.0058886,
2733.009,0.006166789,
2731.080,0.006473184,
2729.151,0.006747647,
2727.223,0.007038118,
2725.294,0.007432945,
2723.365,0.007932139,
2721.436,0.008457053,
2719.508,0.008988393,
2717.579,0.009608854,
2715.650,0.01038397,
2713.722,0.0112774,
2711.793,0.012236,
2709.864,0.01331875,
2707.935,0.01462748,
2706.007,0.01617363,
2704.078,0.0179387,
2702.149,0.01995222,
2700.220,0.0222616,
2698.292,0.02487465,
2696.363,0.02773369,
2694.434,0.03078906,
2692.506,0.03405939,
2690.577,0.03750346,
2688.648,0.04090212,
2686.719,0.04397548,
2684.791,0.04648959,
2682.862,0.04822352,
2680.933,0.04905628,
2679.004,0.04915528,
2677.076,0.04897254,
2675.147,0.04895777,
2673.218,0.04921407,
2671.290,0.04957188,
2669.361,0.05007454,
2667.432,0.05101078,
2665.503,0.05228876,
2663.575,0.05317495,
2661.646,0.05284736,
2659.717,0.05102139,
2657.788,0.04802051,
2655.860,0.04442207,
2653.931,0.0406956,
2652.002,0.03709773,
2650.073,0.0337691,
2648.145,0.030776,
2646.216,0.02807103,
2644.287,0.02554258,
2642.359,0.02313123,
2640.430,0.02088301,
2638.501,0.01885853,
2636.572,0.01701212,
2634.644,0.01527023,
2632.715,0.01368418,
2630.786,0.01235792,
2628.857,0.01126675,
2626.929,0.01029598,
2625.000,0.009418964,
2623.071,0.008686738,
2621.143,0.008093543,
2619.214,0.007587228,
2617.285,0.007138682,
2615.356,0.006732523,
2613.428,0.006362467,
2611.499,0.006029936,
2609.570,0.005722056,
2607.641,0.005434377,
2605.713,0.005203541,
2603.784,0.005047215,
2601.855,0.004907472,
2599.927,0.004727774,
2597.998,0.004547636,
2596.069,0.004438398,
2594.140,0.004342571,
2592.212,0.004152672,
2590.283,0.003919396,
2588.354,0.00379155,
2586.425,0.003767001,
2584.497,0.003722361,
2582.568,0.003613597,
2580.639,0.003494777,
2578.711,0.003437895,
2576.782,0.003442336,
2574.853,0.003418675,
2572.924,0.003353562,
2570.996,0.003344709,
2569.067,0.003385694,
2567.138,0.003357741,
2565.209,0.003254713,
2563.281,0.003211811,
2561.352,0.00326033,
2559.423,0.003282208,
2557.494,0.00323982,
2555.566,0.003209625,
2553.637,0.003262085,
2551.708,0.003363464,
2549.780,0.003412374,
2547.851,0.003405069,
2545.922,0.003436151,
2543.993,0.003532818,
2542.065,0.003617064,
2540.136,0.00363741,
2538.207,0.003639684,
2536.278,0.003698752,
2534.350,0.003810597,
2532.421,0.00390602,
2530.492,0.003976189,
2528.564,0.00409492,
2526.635,0.004278141,
2524.706,0.004441821,
2522.777,0.004556956,
2520.849,0.004698135,
2518.920,0.004918517,
2516.991,0.005173691,
2515.062,0.005392251,
2513.134,0.00559882,
2511.205,0.005909439,
2509.276,0.006326137,
2507.348,0.006741293,
2505.419,0.007154807,
2503.490,0.007658284,
2501.561,0.008284681,
2499.633,0.008990295,
2497.704,0.009747052,
2495.775,0.01061271,
2493.846,0.01168764,
2491.918,0.01299345,
2489.989,0.01447698,
2488.060,0.01615411,
2486.132,0.01812655,
2484.203,0.02043166,
2482.274,0.02300198,
2480.345,0.02579126,
2478.417,0.02884993,
2476.488,0.0322192,
2474.559,0.03580187,
2472.630,0.03942285,
2470.702,0.04299469,
2468.773,0.0465649,
2466.844,0.05014709,
2464.916,0.05362149,
2462.987,0.0568689,
2461.058,0.05975819,
2459.129,0.06201256,
2457.201,0.06328136,
2455.272,0.06329266,
2453.343,0.06199442,
2451.414,0.05959994,
2449.486,0.0563642,
2447.557,0.05244425,
2445.628,0.04807705,
2443.699,0.04361682,
2441.771,0.03930437,
2439.842,0.03518802,
2437.913,0.03127657,
2435.985,0.0276534,
2434.056,0.02442532,
2432.127,0.02158843,
2430.198,0.01904175,
2428.270,0.01677089,
2426.341,0.01486349,
2424.412,0.01331263,
2422.483,0.01198845,
2420.555,0.01080801,
2418.626,0.009777651,
2416.697,0.008911299,
2414.769,0.008177361,
2412.840,0.00750806,
2410.911,0.006882661,
2408.982,0.006361446,
2407.054,0.005961324,
2405.125,0.005595236,
2403.196,0.005206501,
2401.267,0.004855458,
2399.339,0.004605051,
2397.410,0.004408641,
2395.481,0.004195748,
2393.553,0.003961742,
2391.624,0.003772342,
2389.695,0.003655808,
2387.766,0.003537083,
2385.838,0.003380121,
2383.909,0.003251353,
2381.980,0.003181109,
2380.051,0.003106707,
2378.123,0.002983366,
2376.194,0.002849596,
2374.265,0.002772028,
2372.337,0.002738944,
2370.408,0.002670891,
2368.479,0.002543408,
2366.550,0.002454511,
2364.622,0.002457683,
2362.693,0.002452032,
2360.764,0.002384675,
2358.835,0.002329062,
2356.907,0.002343917,
2354.978,0.002393146,
2353.049,0.002398042,
2351.121,0.002346014,
2349.192,0.002311372,
2347.263,0.002334996,
2345.334,0.002349014,
2343.406,0.002299701,
2341.477,0.00224902,
2339.548,0.002269123,
2337.619,0.00231547,
2335.691,0.002322536,
2333.762,0.002310273,
2331.833,0.00234751,
2329.904,0.002429181,
2327.976,0.002468301,
2326.047,0.002450921,
2324.118,0.002458976,
2322.190,0.002531713,
2320.261,0.00262041,
2318.332,0.002679676,
2316.403,0.002718414,
2314.475,0.002793552,
2312.546,0.002909336,
2310.617,0.002993693,
2308.688,0.003036557,
2306.760,0.003125026,
2304.831,0.003287747,
2302.902,0.003452628,
2300.974,0.003595017,
2299.045,0.003756327,
2297.116,0.003957001,
2295.187,0.004177887,
2293.259,0.004388147,
2291.330,0.004594718,
2289.401,0.004875346,
2287.472,0.005262612,
2285.544,0.005665606,
2283.615,0.006047888,
2281.686,0.006511752,
2279.758,0.007131719,
2277.829,0.007855577,
2275.900,0.008629292,
2273.971,0.009502263,
2272.043,0.01058063,
2270.114,0.01191881,
2268.185,0.01348889,
2266.256,0.01527832,
2264.328,0.01735658,
2262.399,0.0197647,
2260.470,0.02244062,
2258.542,0.02531426,
2256.613,0.02837774,
2254.684,0.03166311,
2252.755,0.03515964,
2250.827,0.03871875,
2248.898,0.04211839,
2246.969,0.0452175,
2245.040,0.04791505,
2243.112,0.05001048,
2241.183,0.05123912,
2239.254,0.05142629,
2237.326,0.05053879,
2235.397,0.04862925,
2233.468,0.04582071,
2231.539,0.04234614,
2229.611,0.03853966,
2227.682,0.0346876,
2225.753,0.03092631,
2223.824,0.02734993,
2221.896,0.02407306,
2219.967,0.0211485,
2218.038,0.01853882,
2216.109,0.01620257,
2214.181,0.01415716,
2212.252,0.01243405,
2210.323,0.01100197,
2208.395,0.009765804,
2206.466,0.008679549,
2204.537,0.00777318,
2202.608,0.007031797,
2200.680,0.006390092,
2198.751,0.005815123,
2196.822,0.005316428,
2194.893,0.004908209,
2192.965,0.004563343,
2191.036,0.004238681,
2189.107,0.00393912,
2187.179,0.003689605,
2185.250,0.003478711,
2183.321,0.003282419,
2181.392,0.003104188,
2179.464,0.002953775,
2177.535,0.002822433,
2175.606,0.002699414,
2173.677,0.002588111,
2171.749,0.002485944,
2169.820,0.002395458,
2167.891,0.002327504,
2165.963,0.00226396,
2164.034,0.00218444,
2162.105,0.002107248,
2160.176,0.002048963,
2158.248,0.001991454,
2156.319,0.00193019,
2154.390,0.001878323,
2152.461,0.001843392,
2150.533,0.001829959,
2148.604,0.00180898,
2146.675,0.001755635,
2144.747,0.001714514,
2142.818,0.001715208,
2140.889,0.001710288,
2138.960,0.001671778,
2137.032,0.001636346,
2135.103,0.001637492,
2133.174,0.001653896,
2131.245,0.001642683,
2129.317,0.001613671,
2127.388,0.001607582,
2125.459,0.001619527,
2123.530,0.00162183,
2121.602,0.001626491,
2119.673,0.001650694,
2117.744,0.001672252,
2115.816,0.001684471,
2113.887,0.001715804,
2111.958,0.001747719,
2110.029,0.001753519,
2108.101,0.001756344,
2106.172,0.001771157,
2104.243,0.001796779,
2102.314,0.001845476,
2100.386,0.001909457,
2098.457,0.001961089,
2096.528,0.002004016,
2094.600,0.002047295,
2092.671,0.002093951,
2090.742,0.002172386,
2088.813,0.002281435,
2086.885,0.002383869,
2084.956,0.002470493,
2083.027,0.002550158,
2081.098,0.002635979,
2079.170,0.002763295,
2077.241,0.002951899,
2075.312,0.003162965,
2073.384,0.003358567,
2071.455,0.00356604,
2069.526,0.003817057,
2067.597,0.004097474,
2065.669,0.004394597,
2063.740,0.004718184,
2061.811,0.005095237,
2059.882,0.005562988,
2057.954,0.006136365,
2056.025,0.006823573,
2054.096,0.007666643,
2052.168,0.008714871,
2050.239,0.009994348,
2048.310,0.01154582,
2046.381,0.01341786,
2044.453,0.01560775,
2042.524,0.01808983,
2040.595,0.02084095,
2038.666,0.02380993,
2036.738,0.02692612,
2034.809,0.03009636,
2032.880,0.03321644,
2030.952,0.03617731,
2029.023,0.03877109,
2027.094,0.04066783,
2025.165,0.0415606,
2023.237,0.04130635,
2021.308,0.0399407,
2019.379,0.03762668,
2017.450,0.03462031,
2015.522,0.03122143,
2013.593,0.02771091,
2011.664,0.02431944,
2009.735,0.02119356,
2007.807,0.01838051,
2005.878,0.01587957,
2003.949,0.01368737,
2002.021,0.01179301,
2000.092,0.01017148,
1998.163,0.008787917,
1996.234,0.007618158,
1994.306,0.006661035,
1992.377,0.005887148,
1990.448,0.005230272,
1988.519,0.004662296,
1986.591,0.004195962,
1984.662,0.003826983,
1982.733,0.003520801,
1980.805,0.003241926,
1978.876,0.002985513,
1976.947,0.002777427,
1975.018,0.002624939,
1973.090,0.002485398,
1971.161,0.002332865,
1969.232,0.002197288,
1967.303,0.002087994,
1965.375,0.001978847,
1963.446,0.001872364,
1961.517,0.00177615,
1959.589,0.001700477,
1957.660,0.001651742,
1955.731,0.001595112,
1953.802,0.001516559,
1951.874,0.00146265,
1949.945,0.001446295,
1948.016,0.001415917,
1946.087,0.001356636,
1944.159,0.001306571,
1942.230,0.001288937,
1940.301,0.001284869,
1938.373,0.001263401,
1936.444,0.00121243,
1934.515,0.00117413,
1932.586,0.001174044,
1930.658,0.001162204,
1928.729,0.001121905,
1926.800,0.001111182,
1924.871,0.0011461,
1922.943,0.001160137,
1921.014,0.001126255,
1919.085,0.001090389,
1917.157,0.001102988,
1915.228,0.001149425,
1913.299,0.001158592,
1911.370,0.001123624,
1909.442,0.001109674,
1907.513,0.001139026,
1905.584,0.001155666,
1903.655,0.001135048,
1901.727,0.0011256,
1899.798,0.001172987,
1897.869,0.001237765,
1895.940,0.001258446,
1894.012,0.001245181,
1892.083,0.001268633,
1890.154,0.001338394,
1888.226,0.001388654,
1886.297,0.001408417,
1884.368,0.001440899,
1882.439,0.00151344,
1880.511,0.001596856,
1878.582,0.001649089,
1876.653,0.001678083,
1874.724,0.001759506,
1872.796,0.001896243,
1870.867,0.002003467,
1868.938,0.002076797,
1867.010,0.002199865,
1865.081,0.00239812,
1863.152,0.002608504,
1861.223,0.002804904,
1859.295,0.00303423,
1857.366,0.003381026,
1855.437,0.003864691,
1853.508,0.004405726,
1851.580,0.004991852,
1849.651,0.005759099,
1847.722,0.006801045,
1845.794,0.008082808,
1843.865,0.009611255,
1841.936,0.01143177,
1840.007,0.01352153,
1838.079,0.01579577,
1836.150,0.01809145,
1834.221,0.02020212,
1832.292,0.02197716,
1830.364,0.02329373,
1828.435,0.02392377,
1826.506,0.02360001,
1824.578,0.02225655,
1822.649,0.02008753,
1820.720,0.01740972,
1818.791,0.01457457,
1816.863,0.01191307,
1814.934,0.009656985,
1813.005,0.007885936,
1811.076,0.006533425,
1809.148,0.005523503,
1807.219,0.004836655,
1805.290,0.004409825,
1803.362,0.004078417,
1801.433,0.003701814,
1799.504,0.003284789,
1797.575,0.002912284,
1795.647,0.002597665,
1793.718,0.002282937,
1791.789,0.001971286,
1789.860,0.001735212,
1787.932,0.001606593,
1786.003,0.001493058,
1784.074,0.001327865,
1782.145,0.001162916,
1780.217,0.001067397,
1778.288,0.001019322,
1776.359,0.0009721431,
1774.431,0.0009025788,
1772.502,0.0008368366,
1770.573,0.0008148175,
1768.644,0.000796684,
1766.716,0.0007371505,
1764.787,0.0006834125,
1762.858,0.0006961346,
1760.929,0.0007192549,
1759.001,0.0007029361,
1757.072,0.0006647164,
1755.143,0.0006572096,
1753.215,0.0006942772,
1751.286,0.0007278491,
1749.357,0.0007314164,
1747.428,0.0007694697,
1745.500,0.0009189709,
1743.571,0.001105777,
1741.642,0.001256491,
1739.713,0.001385744,
1737.785,0.001474962,
1735.856,0.001384174,
1733.927,0.001039983,
1731.999,0.0006009769,
1730.070,0.0002881755,
1728.141,0.000163868,
1726.212,0.0001153907,
1724.284,6.88178E-5,
1722.355,3.909452E-5,
1720.426,4.52255E-5,
1718.497,5.119119E-5,
1716.569,4.371609E-5,
1714.640,3.813071E-5,
1712.711,4.58268E-5,
1710.783,5.593341E-5,
1708.854,5.931385E-5,
1706.925,2.970048E-5,
1704.996,8.131118E-5,
1703.068,8.705901E-5,
1701.139,9.517771E-5,
1699.210,0.0001515852,
1697.281,0.000225747,
1695.353,0.0003551749,
1693.424,0.0005416821,
1691.495,0.0007751659,
1689.567,0.001096546,
1687.638,0.001565161,
1685.709,0.002208852,
1683.780,0.002818249,
1681.852,0.003063369,
1679.923,0.002927338,
1677.994,0.002652579,
1676.065,0.002409627,
1674.137,0.002213421,
1672.208,0.002019617,
1670.279,0.001830207,
1668.350,0.001699579,
1666.422,0.00159505,
1664.493,0.001437219,
1662.564,0.001242017,
1660.636,0.001103991,
1658.707,0.001025667,
1656.778,0.0009328934,
1654.849,0.0008026399,
1652.921,0.0007061892,
1650.992,0.0007099834,
1649.063,0.0007193174,
1647.134,0.000661387,
1645.206,0.0005976165,
1643.277,0.0006153921,
1641.348,0.0006591306,
1639.420,0.0006452896,
1637.491,0.0005865503,
1635.562,0.0005647016,
1633.633,0.0006097743,
1631.705,0.0006508116,
1629.776,0.000636999,
1627.847,0.0006148746,
1625.918,0.0006539786,
1623.990,0.0006968195,
1622.061,0.0006982193,
1620.132,0.0006971334,
1618.204,0.000730174,
1616.275,0.000767617,
1614.346,0.0007730485,
1612.417,0.0007498384,
1610.489,0.0007418265,
1608.560,0.000797554,
1606.631,0.0008604131,
1604.702,0.0008836197,
1602.774,0.0009046508,
1600.845,0.0009781325,
1598.916,0.001082378,
1596.988,0.001165899,
1595.059,0.001218296,
1593.130,0.001273464,
1591.201,0.00136734,
1589.273,0.001487286,
1587.344,0.001596224,
1585.415,0.001708447,
1583.486,0.001906313,
1581.558,0.002198531,
1579.629,0.002494112,
1577.700,0.002803285,
1575.771,0.00326694,
1573.843,0.003920227,
1571.914,0.004706859,
1569.985,0.005661448,
1568.057,0.006866707,
1566.128,0.008362651,
1564.199,0.01007592,
1562.270,0.01182046,
1560.342,0.01356673,
1558.413,0.01538009,
1556.484,0.01697512,
1554.555,0.01792783,
1552.627,0.01800983,
1550.698,0.01721359,
1548.769,0.01573903,
1546.841,0.01384792,
1544.912,0.01177293,
1542.983,0.009768267,
1541.054,0.008028248,
1539.126,0.006604957,
1537.197,0.005467222,
1535.268,0.004518568,
1533.339,0.003719907,
1531.411,0.003109496,
1529.482,0.002655738,
1527.553,0.002281572,
1525.625,0.001973039,
1523.696,0.001753585,
1521.767,0.001596937,
1519.838,0.00146139,
1517.910,0.001342432,
1515.981,0.001236896,
1514.052,0.001134959,
1512.123,0.001036842,
1510.195,0.0009349812,
1508.266,0.0008407474,
1506.337,0.0008078208,
1504.409,0.0008107557,
1502.480,0.0007581462,
1500.551,0.0006657314,
1498.622,0.0006088973,
1496.694,0.0005919518,
1494.765,0.0005895926,
1492.836,0.0005816608,
1490.907,0.0005496543,
1488.979,0.0005244815,
1487.050,0.0005282177,
1485.121,0.0005188697,
1483.193,0.0004724675,
1481.264,0.0004422573,
1479.335,0.0004474455,
1477.406,0.0004495082,
1475.478,0.000436267,
1473.549,0.0004172511,
1471.620,0.0004117446,
1469.691,0.0004262962,
1467.763,0.0004264501,
1465.834,0.0003979149,
1463.905,0.0003732266,
1461.976,0.0003738443,
1460.048,0.0003742941,
1458.119,0.0003412602,
1456.190,0.0002881226,
1454.262,0.0002446177,
1452.333,0.000216462,
1450.404,0.0002040141,
1448.475,0.000206705,
1446.547,0.0002245055,
1444.618,0.0002714405,
1442.689,0.0003068601,
1440.760,0.0003193833,
1438.832,0.0003374525,
1436.903,0.0003576072,
1434.974,0.0003514595,
1433.046,0.0003215566,
1431.117,0.0002905752,
1429.188,0.0002703832,
1427.259,0.0002685632,
1425.331,0.0002577235,
1423.402,0.0002413557,
1421.473,0.0002478978,
1419.544,0.0002742283,
1417.616,0.0002897953,
1415.687,0.0003010241,
1413.758,0.0003169664,
1411.830,0.0003295959,
1409.901,0.0003542868,
1407.972,0.0003910789,
1406.043,0.0004018753,
1404.115,0.0004021254,
1402.186,0.0004236669,
1400.257,0.0004466653,
1398.328,0.0004612781,
1396.400,0.0004725259,
1394.471,0.0004778302,
1392.542,0.0004912611,
1390.614,0.0005362477,
1388.685,0.0005941936,
1386.756,0.0006525717,
1384.827,0.0007258873,
1382.899,0.0008066519,
1380.970,0.0008779818,
1379.041,0.0009449949,
1377.112,0.001022668,
1375.184,0.001143967,
1373.255,0.001333371,
1371.326,0.001566287,
1369.398,0.001824735,
1367.469,0.002165643,
1365.540,0.002645219,
1363.611,0.003227756,
1361.683,0.003833088,
1359.754,0.004325527,
1357.825,0.004465535,
1355.896,0.004044954,
1353.968,0.003115778,
1352.039,0.002040177,
1350.110,0.001219642,
1348.181,0.000806147,
1346.253,0.0007083424,
1344.324,0.000733629,
1342.395,0.0007069567,
1340.467,0.0006095124,
1338.538,0.0005873227,
1336.609,0.0007809156,
1334.680,0.001182345,
1332.752,0.001641111,
1330.823,0.001960348,
1328.894,0.001976826,
1326.965,0.001695701,
1325.037,0.001297266,
1323.108,0.0009568764,
1321.179,0.0007063802,
1319.251,0.0005019088,
1317.322,0.0003223419,
1315.393,0.0001974163,
1313.464,0.0001689019,
1311.536,0.0001899365,
1309.607,0.0002342076,
1307.678,0.0003651453,
1305.749,0.0006870356,
1303.821,0.001165972,
1301.892,0.001673425,
1299.963,0.002069139,
1298.035,0.002261367,
1296.106,0.002206893,
1294.177,0.001932032,
1292.248,0.001561362,
1290.320,0.001246635,
1288.391,0.001053809,
1286.462,0.000908559,
1284.533,0.0007417113,
1282.605,0.0005978902,
1280.676,0.0005344342,
1278.747,0.0005191441,
1276.819,0.000502625,
1274.890,0.00045421,
1272.961,0.0003925078,
1271.032,0.0003820678,
1269.104,0.000385611,
1267.175,0.0003225051,
1265.246,0.0002323202,
1263.317,0.0002270135,
1261.389,0.0002702827,
1259.460,0.0002856525,
1257.531,0.0002491839,
1255.603,0.0002056578,
1253.674,0.0002359272,
1251.745,0.0002941953,
1249.816,0.000280559,
1247.888,0.0001945647,
1245.959,0.0001807793,
1244.030,0.0002339552,
1242.101,0.0002427111,
1240.173,0.0001829306,
1238.244,0.0001487428,
1236.315,0.0001685975,
1234.386,0.0001718982,
1232.458,0.0001461885,
1230.529,0.0001002929,
1228.600,0.0001575377,
1226.672,0.0001910415,
1224.743,0.00015051,
1222.814,5.469473E-5,
1220.885,5.94225E-5,
1218.957,0.0001087373,
1217.028,0.000152607,
1215.099,0.0001696523,
1213.170,0.0001681637,
1211.242,0.0002225626,
1209.313,0.0002489419,
1207.384,0.0002161888,
1205.456,0.0001548129,
1203.527,0.000148499,
1201.598,0.0001977477,
1199.669,0.000194825,
1197.741,0.0001556882,
1195.812,0.0001075503,
1193.883,0.0001710598,
1191.954,0.0002267339,
1190.026,0.0002142843,
1188.097,0.0001477621,
1186.168,0.0002074305,
1184.240,0.0002744626,
1182.311,0.0002650192,
1180.382,0.0001816212,
1178.453,0.0001101567,
1176.525,0.0002009989,
1174.596,0.0002934018,
1172.667,0.0002579356,
1170.738,0.0001590073,
1168.810,0.0001762884,
1166.881,0.0002736466,
1164.952,0.0003150211,
1163.024,0.0002681547,
1161.095,0.0002375444,
1159.166,0.0003118267,
1157.237,0.0003816728,
1155.309,0.0003976072,
1153.380,0.0003672204,
1151.451,0.0004338534,
1149.522,0.000553231,
1147.594,0.0006325073,
1145.665,0.0006523312,
1143.736,0.0007169532,
1141.807,0.0008861638,
1139.879,0.001060211,
1137.950,0.001158818,
1136.021,0.001186213,
1134.093,0.001215523,
1132.164,0.001184446,
1130.235,0.0009496866,
1128.306,0.0005873902,
1126.378,0.0003500849,
1124.449,0.000283791,
1122.520,0.0002377123,
1120.591,0.0001782697,
1118.663,7.342963E-5,
1116.734,0.0001247934,
1114.805,0.000201077,
1112.877,0.0002547854,
1110.948,0.0002543395,
1109.019,0.0003606768,
1107.090,0.0005931234,
1105.162,0.0007896344,
1103.233,0.0009308301,
1101.304,0.001078816,
1099.375,0.001271335,
1097.447,0.001361777,
1095.518,0.001265913,
1093.589,0.001018138,
1091.661,0.0007916575,
1089.732,0.000725956,
1087.803,0.0006663232,
1085.874,0.0005222744,
1083.946,0.0003860561,
1082.017,0.0004281731,
1080.088,0.0004321142,
1078.159,0.0003678259,
1076.231,0.0002366478,
1074.302,0.0001737671,
1072.373,0.0002378181,
1070.445,0.0002492857,
1068.516,0.0001937752,
1066.587,0.00021701,
1064.658,0.0002639703,
1062.730,0.0002306144,
1060.801,0.0002030136,
1058.872,0.0001228403,
1056.943,0.0001426131,
1055.015,0.0002136632,
1053.086,0.0002515819,
1051.157,0.0001966161,
1049.229,7.068202E-5,
1047.300,0.0002046182,
1045.371,0.0002809634,
1043.442,0.0002276692,
1041.514,0.0001337849,
1039.585,9.006556E-5,
1037.656,0.0001198553,
1035.727,0.0001488065,
1033.799,9.364516E-5,
1031.870,0.0001017638,
1029.941,0.000115894,
1028.012,0.0001191196,
1026.084,0.0001552654,
1024.155,0.0001082668,
1022.226,0.0001565597,
1020.298,0.0001902446,
1018.369,0.0001139735,
1016.440,7.204882E-5,
1014.511,0.0001207993,
1012.583,0.0001891132,
1010.654,0.0001470305,
1008.725,0.0001269547,
1006.796,0.0001607565,
1004.868,0.0001591396,
1002.939,0.0001750475,
1001.010,0.0001473938,
999.082,0.0001178456,
997.153,0.0001145898,
995.224,0.0001407742,
993.295,0.0001407016,
991.367,0.000136549,
989.438,0.000103008,
987.509,0.0001247005,
985.580,0.0001288703,
983.652,0.0001359635,
981.723,0.0001349898,
979.794,0.0001059799,
977.866,7.493983E-5,
975.937,0.0001191644,
974.008,0.0001109728,
972.079,9.89749E-5,
970.151,0.000167725,
968.222,0.0002236743,
966.293,0.0001458771,
964.364,9.330626E-5,
962.436,0.0001178781,
960.507,0.0001139302,
958.578,0.0001134645,
956.650,9.726667E-5,
954.721,0.0001388522,
952.792,0.0001881649,
950.863,0.000175223,
948.935,0.0001667684,
947.006,0.0001537955,
945.077,0.0001481172,
943.148,9.42914E-5,
941.220,0.0001669349,
939.291,0.000204408,
937.362,9.852339E-5,
935.434,0.0001099237,
933.505,9.658234E-5,
931.576,0.0001283656,
929.647,0.0001749354,
927.719,0.0002035794,
925.790,0.0001886666,
923.861,0.0001050384,
921.932,0.0001240928,
920.004,0.0001578159,
918.075,0.0001418394,
916.146,0.0001444117,
914.217,0.0001324753,
912.289,0.0001917283,
910.360,0.0001822548,
908.431,0.0001510304,
906.503,0.0001549611,
904.574,0.0001684369,
902.645,0.0002001442,
900.716,0.0001992354,
898.788,0.0002184511,
896.859,0.0001802572,
894.930,0.0001432289,
893.001,0.0001577948,
891.073,0.0002022327,
889.144,0.0001852316,
887.215,0.0001981849,
885.287,0.0002376519,
883.358,0.0002625301,
881.429,0.0002458274,
879.500,0.0002095447,
877.572,0.0001895351,
875.643,0.0001881584,
873.714,0.0001906649,
871.785,0.0001723127,
869.857,0.0002279176,
867.928,0.0002669751,
865.999,0.0002014767,
864.071,0.0002173407,
862.142,0.0001927821,
860.213,0.0001922807,
858.284,0.0001982294,
856.356,0.0002189618,
854.427,0.0002269923,
852.498,0.0002056884,
850.569,0.0002578367,
848.641,0.0002618867,
846.712,0.0002046863,
844.783,0.0002150896,
842.855,0.000207446,
840.926,0.0001544458,
838.997,0.0002518622,
837.068,0.0002340583,
835.140,0.0002756916,
833.211,0.0002919945,
831.282,0.0002587005,
829.353,0.0002883803,
827.425,0.0002592013,
825.496,0.0002870773,
823.567,0.0002803364,
821.639,0.0001567511,
819.710,0.0002194504,
817.781,0.0003192846,
815.852,0.0003343721,
813.924,0.0002900547,
811.995,0.000236261,
810.066,0.0002077599,
808.137,0.0003402378,
806.209,0.0003057916,
804.280,0.0003615209,
802.351,0.0003940692,
800.422,0.0003668507,
798.494,0.0002798165,
796.565,0.0003613596,
794.636,0.0003599368,
792.708,0.0002097401,
790.779,0.0001411359,
788.850,0.0003778428,
786.921,0.0004062114,
784.993,0.0003013044,
783.064,0.0002265726,
781.135,0.0002710441,
779.206,0.0002534575,
777.278,0.0003205192,
775.349,0.000408237,
773.420,0.0003775459,
771.492,0.000286613,
769.563,0.0002339658,
767.634,0.0003203096,
765.705,0.0002434648,
763.777,0.0002814041,
761.848,0.000336675,
759.919,0.0002539801,
757.990,0.0002280145,
756.062,0.0002541634,
754.133,0.0003492676,
752.204,0.0003882424,
750.276,0.0002705085,
748.347,0.0003525238,
746.418,0.0004063219,
744.489,0.0002602211,
742.561,0.0002737082,
740.632,0.0004041799,
738.703,0.0003682473,
736.774,0.0002794756,
734.846,0.0003395354,
732.917,0.0003149671,
730.988,0.0002943813,
729.060,0.0003361418,
727.131,0.0003542179,
725.202,0.0003568266,
723.273,0.0003123879,
721.345,0.0003188468,
719.416,0.0002979908,
717.487,0.000417847,
715.558,0.0003898154,
713.630,0.0002956729,
711.701,0.0003610434,
709.772,0.0003036735,
707.843,0.0002196314,
705.915,0.0004141316,
703.986,0.0005836134,
702.057,0.0005387027,
700.129,0.0004619269,
698.200,0.0003191583,
696.271,0.000322779,
694.342,0.0004270262,
692.414,0.0004298017,
690.485,0.0004650691,
688.556,0.0004217977,
686.627,0.0004699157,
684.699,0.0004497457,
682.770,0.0003852651,
680.841,0.000315489,
678.913,0.0004999389,
676.984,0.000526489,
675.055,0.0005611497,
673.126,0.000543976,
671.198,0.0004344069,
669.269,0.0004830981,
667.340,0.0006668575,
665.411,0.0004365474,
663.483,0.0004603719,
661.554,0.0005690371,
659.625,0.0005403602,
657.697,0.0004729642,
655.768,0.0004953284,
653.839,0.0005517562,
651.910,0.0005714067,
649.982,0.0005264359,
648.053,0.0005013245,
646.124,0.0005807016,
644.195,0.0005430669,
642.267,0.0004667751,
640.338,0.0005146979,
638.409,0.000605669,
636.481,0.0006139591,
634.552,0.0007435694,
632.623,0.0006684589,
630.694,0.0006392624,
628.766,0.0006077528,
626.837,0.0007418526,
624.908,0.0006939851,
622.979,0.0006980881,
621.051,0.000863806,
619.122,0.0008675206,
617.193,0.0007846079,
615.265,0.0007046541,
613.336,0.0008422718,
611.407,0.0008825748,
609.478,0.0008429388,
607.550,0.0008229789,
605.621,0.0009167813,
603.692,0.001054636,
601.763,0.0008842158,
599.835,0.0009385533,
597.906,0.0008974241,
595.977,0.0008578465,
594.048,0.001019508,
592.120,0.000990188,
590.191,0.0009099256,
588.262,0.0009916853,
586.334,0.0009702878,
584.405,0.0011204,
582.476,0.001039975,
580.547,0.0009121975,
578.619,0.0009707772,
576.690,0.001190315,
574.761,0.001118863,
572.832,0.0009675624,
570.904,0.001179381,
568.975,0.001328246,
567.046,0.001438176,
565.118,0.001395153,
563.189,0.001107029,
561.260,0.00124131,
559.331,0.001096016,
557.403,0.001432186,
555.474,0.001644563,
553.545,0.001237576,
551.616,0.0009682041,
549.688,0.001033716,
547.759,0.001372717,
545.830,0.001552013,
543.902,0.001372854,
541.973,0.001316635,
540.044,0.001601259,
538.115,0.00144918,
536.187,0.00126961,
534.258,0.001459159,
532.329,0.001901236,
530.400,0.00159256,
528.472,0.001279225,
526.543,0.001555766,
524.614,0.001761271,
522.686,0.001649229,
520.757,0.001394824,
518.828,0.00118136,
516.899,0.001409048,
514.971,0.001526234,
513.042,0.001544958,
511.113,0.001623402,
509.184,0.001546242,
507.256,0.001846025,
505.327,0.00195682,
503.398,0.001611314,
501.470,0.001643598,
499.541,0.001819672,
497.612,0.001764981,
495.683,0.001655428,
493.755,0.001860715,
491.826,0.002166618,
489.897,0.002063051,
487.968,0.001890087,
486.040,0.002370399,
484.111,0.002606324,
482.182,0.001775577,
480.253,0.002391284,
478.325,0.002542283,
476.396,0.002605011,
474.467,0.002788396,
472.539,0.002877469,
470.610,0.002955654,
468.681,0.002912585,
466.752,0.002928524,
464.824,0.00367451,
462.895,0.003931696,
460.966,0.003221964,
459.037,0.003205071,
457.109,0.003452879,
455.180,0.003695489,
453.251,0.003837795,
451.323,0.003728678,
449.394,0.00412779,
447.465,0.004196041,
445.536,0.004284553,
443.608,0.004522899,
441.679,0.004191011,
439.750,0.004864837,
437.821,0.005451588,
435.893,0.004798838,
433.964,0.004769967,
432.035,0.005712284,
430.107,0.006443717,
428.178,0.00655553,
426.249,0.007311955,
424.320,0.007133898,
422.392,0.00720777,
420.463,0.009440493,
418.534,0.009984935,
416.605,0.008902039,
414.677,0.009493458,
412.748,0.01024552,
410.819,0.01011531,
408.891,0.01136042,
406.962,0.01214741,
405.033,0.01173527,
403.104,0.01348285,
401.176,0.01550842,
399.247,0.01485339,
397.318,0.01521872,
395.389,0.01899343,
393.461,0.02146071,
391.532,0.02448175,
389.603,0.02722349,
387.675,0.02635978,
385.746,0.02881743,
383.817,0.03250546,
381.888,0.03105978,
379.960,0.0330777,
378.031,0.04458846,
376.102,0.04657786,
374.173,0.04893037,
