,1,
Wavenumbers [1/cm],Transmittance,
7496.969,0.1343411,
7495.040,0.132344,
7493.112,0.1290801,
7491.183,0.1241786,
7489.254,0.1202032,
7487.326,0.1186127,
7485.397,0.1175593,
7483.468,0.1157617,
7481.539,0.1135772,
7479.611,0.1111341,
7477.682,0.1081606,
7475.753,0.104662,
7473.824,0.101237,
7471.896,0.09882897,
7469.967,0.09751058,
7468.038,0.09600765,
7466.110,0.09358252,
7464.181,0.09116934,
7462.252,0.08946317,
7460.323,0.08799726,
7458.395,0.08638237,
7456.466,0.0846304,
7454.537,0.08291396,
7452.608,0.08143386,
7450.680,0.08035098,
7448.751,0.07930609,
7446.822,0.07778484,
7444.893,0.07649173,
7442.965,0.07610588,
7441.036,0.07572172,
7439.107,0.07466714,
7437.179,0.07364104,
7435.250,0.0730871,
7433.321,0.072598,
7431.392,0.07187288,
7429.464,0.07099698,
7427.535,0.07027581,
7425.606,0.06983712,
7423.677,0.06973723,
7421.749,0.07014197,
7419.820,0.07056956,
7417.891,0.07061401,
7415.963,0.07074985,
7414.034,0.07116556,
7412.105,0.07151558,
7410.176,0.07159711,
7408.248,0.07157285,
7406.319,0.07185683,
7404.390,0.07267565,
7402.461,0.07385133,
7400.533,0.07503229,
7398.604,0.07604431,
7396.675,0.07692335,
7394.747,0.07764146,
7392.818,0.0783134,
7390.889,0.07939538,
7388.960,0.08097251,
7387.032,0.08253163,
7385.103,0.08393231,
7383.174,0.08557536,
7381.245,0.08740991,
7379.317,0.0889449,
7377.388,0.09037299,
7375.459,0.09249593,
7373.531,0.09509177,
7371.602,0.09714963,
7369.673,0.0988178,
7367.744,0.1008869,
7365.816,0.1032468,
7363.887,0.1055644,
7361.958,0.1079834,
7360.029,0.1105275,
7358.101,0.1130661,
7356.172,0.1156151,
7354.243,0.1182962,
7352.314,0.1209247,
7350.386,0.1234195,
7348.457,0.1264162,
7346.528,0.1297103,
7344.600,0.132221,
7342.671,0.1340565,
7340.742,0.1361202,
7338.813,0.1388657,
7336.885,0.1422529,
7334.956,0.1457752,
7333.027,0.1484025,
7331.098,0.1496165,
7329.170,0.1503622,
7327.241,0.1518301,
7325.312,0.1540237,
7323.384,0.1561287,
7321.455,0.1576903,
7319.526,0.158759,
7317.597,0.159411,
7315.669,0.1598899,
7313.740,0.1604037,
7311.811,0.1607272,
7309.882,0.1604752,
7307.954,0.1596654,
7306.025,0.1587927,
7304.096,0.1580902,
7302.168,0.1571299,
7300.239,0.1557896,
7298.310,0.1543528,
7296.381,0.1522364,
7294.453,0.1493292,
7292.524,0.1469944,
7290.595,0.1453839,
7288.666,0.1433944,
7286.738,0.1410771,
7284.809,0.1389236,
7282.880,0.1364689,
7280.952,0.1333889,
7279.023,0.1303335,
7277.094,0.1277761,
7275.165,0.1253452,
7273.237,0.1228113,
7271.308,0.1204395,
7269.379,0.1180022,
7267.450,0.1152094,
7265.522,0.1123102,
7263.593,0.1091595,
7261.664,0.1057853,
7259.736,0.1029296,
7257.807,0.100822,
7255.878,0.09906024,
7253.949,0.09731326,
7252.021,0.09533546,
7250.092,0.09312867,
7248.163,0.0910001,
7246.234,0.08893606,
7244.306,0.08688914,
7242.377,0.08513189,
7240.448,0.08344869,
7238.519,0.08165909,
7236.591,0.08019473,
7234.662,0.07917194,
7232.733,0.07842389,
7230.805,0.07786248,
7228.876,0.07709057,
7226.947,0.07590207,
7225.018,0.07476722,
7223.090,0.0738187,
7221.161,0.07282694,
7219.232,0.07221253,
7217.303,0.07195523,
7215.375,0.07142624,
7213.446,0.07105668,
7211.517,0.07127628,
7209.589,0.07134994,
7207.660,0.07091161,
7205.731,0.07042166,
7203.802,0.0702478,
7201.874,0.0705349,
7199.945,0.07099179,
7198.016,0.07130425,
7196.087,0.07188951,
7194.159,0.07270089,
7192.230,0.07303648,
7190.301,0.07311066,
7188.373,0.07357591,
7186.444,0.07443058,
7184.515,0.07538302,
7182.586,0.07649798,
7180.658,0.07784719,
7178.729,0.0790555,
7176.800,0.08002265,
7174.871,0.08116992,
7172.943,0.0829018,
7171.014,0.08507374,
7169.085,0.08709568,
7167.157,0.08893682,
7165.228,0.09095617,
7163.299,0.09306225,
7161.370,0.09497397,
7159.442,0.09671305,
7157.513,0.0985291,
7155.584,0.1005705,
7153.655,0.102955,
7151.727,0.1056321,
7149.798,0.1081404,
7147.869,0.1103336,
7145.941,0.1127606,
7144.012,0.1155789,
7142.083,0.1182616,
7140.154,0.1207196,
7138.226,0.1232145,
7136.297,0.1258057,
7134.368,0.128775,
7132.439,0.1322834,
7130.511,0.1357216,
7128.582,0.1386801,
7126.653,0.1414464,
7124.724,0.1441018,
7122.796,0.1466307,
7120.867,0.1492293,
7118.938,0.1519567,
7117.010,0.1546696,
7115.081,0.1571965,
7113.152,0.1595067,
7111.223,0.1615262,
7109.295,0.1633376,
7107.366,0.1651338,
7105.437,0.166749,
7103.508,0.1681406,
7101.580,0.1693994,
7099.651,0.1703936,
7097.722,0.171087,
7095.794,0.1717713,
7093.865,0.1725216,
7091.936,0.1726401,
7090.007,0.1720061,
7088.079,0.1714915,
7086.150,0.1711688,
7084.221,0.170404,
7082.292,0.1690481,
7080.364,0.1673248,
7078.435,0.1656322,
7076.506,0.1640725,
7074.578,0.1619529,
7072.649,0.1590033,
7070.720,0.1559475,
7068.791,0.1532284,
7066.863,0.1507653,
7064.934,0.1483147,
7063.005,0.1455289,
7061.076,0.1423201,
7059.148,0.1389168,
7057.219,0.1356188,
7055.290,0.1324385,
7053.362,0.1291508,
7051.433,0.1259373,
7049.504,0.12312,
7047.575,0.1205117,
7045.647,0.1177711,
7043.718,0.1148088,
7041.789,0.1117709,
7039.860,0.1088195,
7037.932,0.1058095,
7036.003,0.102733,
7034.074,0.09992038,
7032.146,0.09740683,
7030.217,0.09497317,
7028.288,0.09259292,
7026.359,0.09038576,
7024.431,0.0882909,
7022.502,0.08616244,
7020.573,0.08410878,
7018.644,0.08236141,
7016.716,0.08101071,
7014.787,0.07976396,
7012.858,0.07813627,
7010.929,0.07617959,
7009.001,0.07451055,
7007.072,0.07341566,
7005.143,0.07247037,
7003.215,0.07124729,
7001.286,0.06986991,
6999.357,0.06872922,
6997.428,0.06788401,
6995.500,0.06713586,
6993.571,0.06666157,
6991.642,0.06640182,
6989.713,0.06583791,
6987.785,0.06519368,
6985.856,0.06491649,
6983.927,0.06477066,
6981.999,0.06442325,
6980.070,0.06389947,
6978.141,0.06351949,
6976.212,0.06332658,
6974.284,0.06326474,
6972.355,0.06373049,
6970.426,0.06455466,
6968.497,0.06492456,
6966.569,0.06480907,
6964.640,0.06489262,
6962.711,0.06557296,
6960.783,0.06671857,
6958.854,0.06792644,
6956.925,0.06884981,
6954.996,0.06951963,
6953.068,0.07035597,
6951.139,0.07153647,
6949.210,0.07272042,
6947.281,0.07375483,
6945.353,0.07497776,
6943.424,0.07655285,
6941.495,0.07814989,
6939.567,0.0796788,
6937.638,0.08155645,
6935.709,0.08369485,
6933.780,0.08555035,
6931.852,0.08722995,
6929.923,0.0892036,
6927.994,0.09143213,
6926.065,0.09372427,
6924.137,0.09628793,
6922.208,0.09909804,
6920.279,0.1017668,
6918.350,0.1043452,
6916.422,0.1070648,
6914.493,0.1098678,
6912.564,0.1125449,
6910.636,0.1150412,
6908.707,0.1177116,
6906.778,0.1207907,
6904.849,0.1240987,
6902.921,0.1273827,
6900.992,0.1303971,
6899.063,0.1330834,
6897.134,0.1356755,
6895.206,0.1384072,
6893.277,0.1412621,
6891.348,0.1440121,
6889.420,0.1465538,
6887.491,0.1490554,
6885.562,0.1515476,
6883.633,0.153809,
6881.705,0.1559364,
6879.776,0.1580433,
6877.847,0.1596755,
6875.918,0.1607306,
6873.990,0.1617923,
6872.061,0.1629171,
6870.132,0.1635403,
6868.204,0.1635302,
6866.275,0.1632755,
6864.346,0.1629779,
6862.417,0.1624332,
6860.489,0.1615095,
6858.560,0.1604193,
6856.631,0.1591805,
6854.702,0.1574667,
6852.774,0.1552791,
6850.845,0.1529365,
6848.916,0.1505844,
6846.988,0.1481396,
6845.059,0.1454339,
6843.130,0.1425694,
6841.201,0.1398067,
6839.273,0.1370324,
6837.344,0.1340103,
6835.415,0.1308048,
6833.486,0.1277368,
6831.558,0.1248384,
6829.629,0.121602,
6827.700,0.1180098,
6825.772,0.1146532,
6823.843,0.1116568,
6821.914,0.108834,
6819.985,0.1061621,
6818.057,0.1035853,
6816.128,0.1010489,
6814.199,0.09858989,
6812.270,0.09614111,
6810.342,0.09363063,
6808.413,0.09108299,
6806.484,0.08856995,
6804.555,0.08631657,
6802.627,0.08440433,
6800.698,0.08264336,
6798.769,0.08091963,
6796.841,0.0792717,
6794.912,0.07771438,
6792.983,0.07609103,
6791.054,0.07438491,
6789.126,0.07280069,
6787.197,0.07142856,
6785.268,0.07033506,
6783.339,0.06952482,
6781.411,0.06886247,
6779.482,0.06819849,
6777.553,0.06738492,
6775.625,0.06654534,
6773.696,0.06591596,
6771.767,0.06535599,
6769.838,0.06478005,
6767.910,0.06437521,
6765.981,0.0641036,
6764.052,0.06380903,
6762.123,0.06348944,
6760.195,0.06338048,
6758.266,0.06368126,
6756.337,0.06401763,
6754.409,0.06402513,
6752.480,0.06402338,
6750.551,0.06437453,
6748.622,0.06493154,
6746.694,0.06538185,
6744.765,0.06571174,
6742.836,0.06620739,
6740.907,0.06704075,
6738.979,0.06802286,
6737.050,0.06901798,
6735.121,0.07023045,
6733.193,0.07162009,
6731.264,0.07281158,
6729.335,0.07393863,
6727.406,0.07541355,
6725.478,0.07709011,
6723.549,0.07877402,
6721.620,0.08062354,
6719.691,0.08251375,
6717.763,0.08424523,
6715.834,0.08613366,
6713.905,0.08839916,
6711.977,0.09077633,
6710.048,0.09313145,
6708.119,0.09544133,
6706.190,0.09774552,
6704.262,0.1003969,
6702.333,0.1033453,
6700.404,0.1061631,
6698.475,0.1089016,
6696.547,0.1117659,
6694.618,0.1146533,
6692.689,0.1174398,
6690.760,0.1202651,
6688.832,0.1233647,
6686.903,0.1266792,
6684.974,0.1299167,
6683.046,0.1329764,
6681.117,0.1360453,
6679.188,0.1392416,
6677.259,0.142351,
6675.331,0.1452095,
6673.402,0.1480259,
6671.473,0.150873,
6669.544,0.1535381,
6667.616,0.1560532,
6665.687,0.1586128,
6663.758,0.1610688,
6661.830,0.1630754,
6659.901,0.1647059,
6657.972,0.1663515,
6656.043,0.1680301,
6654.115,0.1693952,
6652.186,0.1703878,
6650.257,0.1712826,
6648.328,0.1720384,
6646.400,0.172387,
6644.471,0.1723447,
6642.542,0.1719077,
6640.614,0.1708859,
6638.685,0.1694336,
6636.756,0.1678846,
6634.827,0.1660976,
6632.899,0.1638735,
6630.970,0.1613405,
6629.041,0.1585668,
6627.112,0.1556613,
6625.184,0.1527409,
6623.255,0.149675,
6621.326,0.1464845,
6619.398,0.1433337,
6617.469,0.1401747,
6615.540,0.1370013,
6613.611,0.1337659,
6611.683,0.1302377,
6609.754,0.1265688,
6607.825,0.1231274,
6605.896,0.1198985,
6603.968,0.1166053,
6602.039,0.1130945,
6600.110,0.1095946,
6598.182,0.1064031,
6596.253,0.1034496,
6594.324,0.1005409,
6592.395,0.09770349,
6590.467,0.09507853,
6588.538,0.09268423,
6586.609,0.09036388,
6584.680,0.08799847,
6582.752,0.08569347,
6580.823,0.08346214,
6578.894,0.08121698,
6576.965,0.07919406,
6575.037,0.07754952,
6573.108,0.07596137,
6571.179,0.07421196,
6569.251,0.07248938,
6567.322,0.07094256,
6565.393,0.06952567,
6563.464,0.06819285,
6561.536,0.06699154,
6559.607,0.06593169,
6557.678,0.06479482,
6555.749,0.06354529,
6553.821,0.06250717,
6551.892,0.06174979,
6549.963,0.0610636,
6548.035,0.06045888,
6546.106,0.0600677,
6544.177,0.05978869,
6542.248,0.0594997,
6540.320,0.05925497,
6538.391,0.05904125,
6536.462,0.05880044,
6534.533,0.05859555,
6532.605,0.0585443,
6530.676,0.05873181,
6528.747,0.05911569,
6526.819,0.05947968,
6524.890,0.0597439,
6522.961,0.06004637,
6521.032,0.06039301,
6519.104,0.06078988,
6517.175,0.06136151,
6515.246,0.06219336,
6513.317,0.06331477,
6511.389,0.06459816,
6509.460,0.06578104,
6507.531,0.06669086,
6505.603,0.06757876,
6503.674,0.0687863,
6501.745,0.07016487,
6499.816,0.071498,
6497.888,0.07288213,
6495.959,0.07458887,
6494.030,0.07663424,
6492.101,0.0786759,
6490.173,0.08072071,
6488.244,0.08294146,
6486.315,0.08516371,
6484.386,0.08734962,
6482.458,0.08969413,
6480.529,0.0922662,
6478.600,0.09489895,
6476.672,0.09740594,
6474.743,0.09997315,
6472.814,0.1028877,
6470.885,0.1060065,
6468.957,0.1090723,
6467.028,0.1122201,
6465.099,0.1155557,
6463.170,0.1188161,
6461.242,0.1219701,
6459.313,0.1252474,
6457.384,0.1286578,
6455.456,0.1320751,
6453.527,0.1353157,
6451.598,0.1383622,
6449.669,0.1414923,
6447.741,0.144745,
6445.812,0.1478653,
6443.883,0.1507746,
6441.954,0.1534982,
6440.026,0.1560023,
6438.097,0.1583756,
6436.168,0.1606658,
6434.240,0.1627458,
6432.311,0.1645785,
6430.382,0.166128,
6428.453,0.1672344,
6426.525,0.1677999,
6424.596,0.1679267,
6422.667,0.1678607,
6420.738,0.1675731,
6418.810,0.1668043,
6416.881,0.1656529,
6414.952,0.1643346,
6413.024,0.1626832,
6411.095,0.1604983,
6409.166,0.1579588,
6407.237,0.1554204,
6405.309,0.1529156,
6403.380,0.1501819,
6401.451,0.1471616,
6399.522,0.1439605,
6397.594,0.1406346,
6395.665,0.1372201,
6393.736,0.1336687,
6391.808,0.1300506,
6389.879,0.1265318,
6387.950,0.1230311,
6386.021,0.1194611,
6384.093,0.1159917,
6382.164,0.1127838,
6380.235,0.1097317,
6378.306,0.1066671,
6376.378,0.103624,
6374.449,0.1006225,
6372.520,0.09758797,
6370.591,0.09454938,
6368.663,0.09165408,
6366.734,0.08907419,
6364.805,0.08678993,
6362.877,0.08459008,
6360.948,0.08237552,
6359.019,0.08017344,
6357.090,0.07804555,
6355.162,0.07603922,
6353.233,0.07412425,
6351.304,0.07235121,
6349.375,0.07082748,
6347.447,0.06951302,
6345.518,0.0682524,
6343.589,0.06690776,
6341.661,0.06554745,
6339.732,0.06437407,
6337.803,0.0634138,
6335.874,0.06250488,
6333.946,0.06159529,
6332.017,0.06081838,
6330.088,0.06019855,
6328.159,0.05970307,
6326.231,0.05933841,
6324.302,0.05902739,
6322.373,0.05883152,
6320.445,0.0587871,
6318.516,0.05864497,
6316.587,0.05836685,
6314.658,0.05815667,
6312.730,0.05805543,
6310.801,0.05814612,
6308.872,0.05847981,
6306.943,0.05882131,
6305.015,0.05911594,
6303.086,0.05955062,
6301.157,0.06016747,
6299.229,0.06091898,
6297.300,0.0617196,
6295.371,0.06244602,
6293.442,0.06315105,
6291.514,0.06408361,
6289.585,0.06523205,
6287.656,0.0664036,
6285.727,0.06770103,
6283.799,0.06912108,
6281.870,0.07045224,
6279.941,0.0718144,
6278.013,0.07335723,
6276.084,0.07489129,
6274.155,0.07643473,
6272.226,0.07832264,
6270.298,0.08048389,
6268.369,0.08259349,
6266.440,0.08466814,
6264.511,0.08679697,
6262.583,0.0889769,
6260.654,0.09131223,
6258.725,0.09388182,
6256.796,0.09660363,
6254.868,0.09933744,
6252.939,0.1020513,
6251.010,0.1049357,
6249.082,0.1081053,
6247.153,0.1113554,
6245.224,0.1145416,
6243.295,0.1176934,
6241.367,0.120807,
6239.438,0.1239423,
6237.509,0.1272479,
6235.580,0.130685,
6233.652,0.1339766,
6231.723,0.1370846,
6229.794,0.1402537,
6227.866,0.1434923,
6225.937,0.1466795,
6224.008,0.1499019,
6222.079,0.1531243,
6220.151,0.1560844,
6218.222,0.1587866,
6216.293,0.1613601,
6214.364,0.1636597,
6212.436,0.1655931,
6210.507,0.167316,
6208.578,0.1688567,
6206.650,0.169968,
6204.721,0.1705877,
6202.792,0.1708952,
6200.863,0.1708267,
6198.935,0.1702421,
6197.006,0.1692744,
6195.077,0.168085,
6193.148,0.1665473,
6191.220,0.1645066,
6189.291,0.1621782,
6187.362,0.1597824,
6185.434,0.1571497,
6183.505,0.1540798,
6181.576,0.1506944,
6179.647,0.1472595,
6177.719,0.1438393,
6175.790,0.1402749,
6173.861,0.1365193,
6171.932,0.1327399,
6170.004,0.1290151,
6168.075,0.1252669,
6166.146,0.1214512,
6164.218,0.1177379,
6162.289,0.1143543,
6160.360,0.1111444,
6158.431,0.1078326,
6156.503,0.1044138,
6154.574,0.1009356,
6152.645,0.09755161,
6150.716,0.09445819,
6148.788,0.0915691,
6146.859,0.08880686,
6144.930,0.08623894,
6143.001,0.08379982,
6141.073,0.08141692,
6139.144,0.07909451,
6137.215,0.07679873,
6135.287,0.07463508,
6133.358,0.07280514,
6131.429,0.07116324,
6129.500,0.06941877,
6127.572,0.06764525,
6125.643,0.06597398,
6123.714,0.06439955,
6121.785,0.06298895,
6119.857,0.06176572,
6117.928,0.06067815,
6115.999,0.05965884,
6114.071,0.05862848,
6112.142,0.05758559,
6110.213,0.05658682,
6108.284,0.05572747,
6106.356,0.05512166,
6104.427,0.05470463,
6102.498,0.05434652,
6100.569,0.05407853,
6098.641,0.05384566,
6096.712,0.05359621,
6094.783,0.05342271,
6092.855,0.05326913,
6090.926,0.05312661,
6088.997,0.05310577,
6087.068,0.05317727,
6085.140,0.05329397,
6083.211,0.0534449,
6081.282,0.0536522,
6079.353,0.05404316,
6077.425,0.05467062,
6075.496,0.05540856,
6073.567,0.05617877,
6071.639,0.05699905,
6069.710,0.057769,
6067.781,0.05843878,
6065.852,0.05922822,
6063.924,0.06023884,
6061.995,0.06137145,
6060.066,0.06266402,
6058.137,0.06406834,
6056.209,0.06544439,
6054.280,0.06696057,
6052.351,0.06876342,
6050.423,0.07066847,
6048.494,0.07259663,
6046.565,0.07463904,
6044.636,0.07676831,
6042.708,0.07901196,
6040.779,0.08146241,
6038.850,0.08400425,
6036.921,0.08651289,
6034.993,0.08915214,
6033.064,0.09205291,
6031.135,0.09504241,
6029.206,0.09811605,
6027.278,0.1014239,
6025.349,0.1047986,
6023.420,0.1081217,
6021.492,0.111524,
6019.563,0.1150491,
6017.634,0.1186828,
6015.705,0.1223789,
6013.777,0.1260431,
6011.848,0.1296902,
6009.919,0.1333949,
6007.990,0.1371739,
6006.062,0.1409355,
6004.133,0.1445308,
6002.204,0.1479309,
6000.276,0.1511406,
5998.347,0.1541829,
5996.418,0.1571959,
5994.489,0.1601815,
5992.561,0.1628861,
5990.632,0.165113,
5988.703,0.1669809,
5986.774,0.1686037,
5984.846,0.1698544,
5982.917,0.1706646,
5980.988,0.171078,
5979.060,0.171097,
5977.131,0.1706285,
5975.202,0.1696652,
5973.273,0.1684217,
5971.345,0.1669289,
5969.416,0.1649129,
5967.487,0.1623058,
5965.558,0.1594067,
5963.630,0.1564325,
5961.701,0.1532615,
5959.772,0.1497043,
5957.844,0.1458279,
5955.915,0.1418859,
5953.986,0.1380107,
5952.057,0.1341225,
5950.129,0.1300824,
5948.200,0.1259897,
5946.271,0.1220902,
5944.342,0.1183399,
5942.414,0.1145741,
5940.485,0.1107792,
5938.556,0.1069842,
5936.627,0.1032944,
5934.699,0.09983682,
5932.770,0.09660501,
5930.841,0.09352288,
5928.913,0.09052834,
5926.984,0.08761644,
5925.055,0.0848096,
5923.126,0.08206376,
5921.198,0.07937543,
5919.269,0.07684486,
5917.340,0.07452619,
5915.411,0.07235832,
5913.483,0.07028747,
5911.554,0.0683547,
5909.625,0.06654835,
5907.697,0.06481063,
5905.768,0.06317054,
5903.839,0.0616475,
5901.910,0.06022671,
5899.982,0.05890043,
5898.053,0.05763693,
5896.124,0.05646037,
5894.195,0.05544286,
5892.267,0.05453828,
5890.338,0.05367848,
5888.409,0.05293331,
5886.481,0.05229248,
5884.552,0.05162994,
5882.623,0.05097067,
5880.694,0.05043842,
5878.766,0.05009913,
5876.837,0.04994718,
5874.908,0.04985935,
5872.979,0.04969912,
5871.051,0.0494623,
5869.122,0.04925159,
5867.193,0.04916745,
5865.265,0.04919245,
5863.336,0.04930596,
5861.407,0.04957583,
5859.478,0.04999411,
5857.550,0.05049232,
5855.621,0.05107652,
5853.692,0.05174768,
5851.763,0.05237906,
5849.835,0.05290501,
5847.906,0.05350064,
5845.977,0.05433948,
5844.049,0.05536902,
5842.120,0.05639202,
5840.191,0.0573303,
5838.262,0.05833058,
5836.334,0.05955129,
5834.405,0.06099824,
5832.476,0.06254405,
5830.547,0.06411827,
5828.619,0.06582791,
5826.690,0.06769843,
5824.761,0.06959734,
5822.832,0.07156161,
5820.904,0.07373219,
5818.975,0.07610323,
5817.046,0.0786295,
5815.118,0.08125041,
5813.189,0.08394524,
5811.260,0.08677869,
5809.331,0.08968255,
5807.403,0.0925756,
5805.474,0.09560432,
5803.545,0.09895352,
5801.616,0.10258,
5799.688,0.1062796,
5797.759,0.10994,
5795.830,0.1135424,
5793.902,0.1170873,
5791.973,0.1206893,
5790.044,0.124468,
5788.115,0.1283449,
5786.187,0.1322097,
5784.258,0.1360647,
5782.329,0.1398742,
5780.400,0.143599,
5778.472,0.1472261,
5776.543,0.1506716,
5774.614,0.1538865,
5772.686,0.1568672,
5770.757,0.1595642,
5768.828,0.1618955,
5766.899,0.1638407,
5764.971,0.1654871,
5763.042,0.1668244,
5761.113,0.1676497,
5759.184,0.1678507,
5757.256,0.1676294,
5755.327,0.167115,
5753.398,0.1660716,
5751.470,0.1644664,
5749.541,0.1625302,
5747.612,0.1602595,
5745.683,0.1576031,
5743.755,0.1546694,
5741.826,0.1515569,
5739.897,0.1482311,
5737.968,0.1446387,
5736.040,0.1409442,
5734.111,0.1373316,
5732.182,0.1336573,
5730.254,0.1297225,
5728.325,0.1256903,
5726.396,0.121794,
5724.467,0.1179937,
5722.539,0.1142513,
5720.610,0.1105917,
5718.681,0.1069332,
5716.752,0.1032557,
5714.824,0.09962901,
5712.895,0.09615365,
5710.966,0.09292386,
5709.037,0.08984503,
5707.109,0.08681157,
5705.180,0.08390617,
5703.251,0.08117062,
5701.323,0.07851344,
5699.394,0.07585058,
5697.465,0.07327025,
5695.536,0.07099506,
5693.608,0.06907222,
5691.679,0.06728917,
5689.750,0.06545352,
5687.821,0.06359863,
5685.893,0.0618536,
5683.964,0.06026052,
5682.035,0.05882014,
5680.107,0.05753455,
5678.178,0.05633931,
5676.249,0.05516421,
5674.320,0.05403869,
5672.392,0.05303809,
5670.463,0.05219304,
5668.534,0.05143973,
5666.605,0.05067487,
5664.677,0.04991899,
5662.748,0.04927766,
5660.819,0.04873089,
5658.891,0.04823991,
5656.962,0.04785411,
5655.033,0.04751934,
5653.104,0.04721709,
5651.176,0.04707946,
5649.247,0.04706293,
5647.318,0.04703803,
5645.389,0.04705349,
5643.461,0.04716134,
5641.532,0.04732187,
5639.603,0.0475086,
5637.675,0.04773726,
5635.746,0.04804548,
5633.817,0.04844626,
5631.888,0.04887996,
5629.960,0.04928521,
5628.031,0.04974594,
5626.102,0.05039537,
5624.173,0.05120587,
5622.245,0.0521288,
5620.316,0.05321272,
5618.387,0.05434621,
5616.459,0.05534426,
5614.530,0.0563164,
5612.601,0.05747922,
5610.672,0.05891539,
5608.744,0.06060419,
5606.815,0.06238806,
5604.886,0.06417906,
5602.957,0.06606394,
5601.029,0.06809542,
5599.100,0.07029853,
5597.171,0.0726776,
5595.242,0.07516063,
5593.314,0.07774433,
5591.385,0.08050027,
5589.456,0.08337618,
5587.528,0.08628315,
5585.599,0.08933204,
5583.670,0.0926718,
5581.741,0.09624083,
5579.813,0.09989505,
5577.884,0.1035838,
5575.955,0.1072794,
5574.026,0.1110055,
5572.098,0.1149344,
5570.169,0.1191227,
5568.240,0.1233503,
5566.312,0.1274259,
5564.383,0.1314118,
5562.454,0.1354401,
5560.525,0.1394781,
5558.597,0.1434003,
5556.668,0.1471387,
5554.739,0.1507092,
5552.810,0.1541487,
5550.882,0.1574134,
5548.953,0.1604054,
5547.024,0.1630749,
5545.096,0.1654034,
5543.167,0.16732,
5541.238,0.1687433,
5539.309,0.169668,
5537.381,0.1701611,
5535.452,0.1702587,
5533.523,0.1698392,
5531.594,0.168792,
5529.666,0.1672185,
5527.737,0.1652784,
5525.808,0.162985,
5523.880,0.1602478,
5521.951,0.1571049,
5520.022,0.1536496,
5518.093,0.1498902,
5516.165,0.1459486,
5514.236,0.1419487,
5512.307,0.1378593,
5510.378,0.1337035,
5508.450,0.1295251,
5506.521,0.1252768,
5504.592,0.1209503,
5502.663,0.1166647,
5500.735,0.1125536,
5498.806,0.1086186,
5496.877,0.1047284,
5494.949,0.100785,
5493.020,0.096937,
5491.091,0.09335486,
5489.162,0.08995678,
5487.234,0.08666437,
5485.305,0.08354426,
5483.376,0.08063498,
5481.447,0.07780211,
5479.519,0.07489443,
5477.590,0.07204429,
5475.661,0.06950851,
5473.733,0.06730089,
5471.804,0.06517322,
5469.875,0.06299958,
5467.946,0.0609564,
5466.018,0.05913217,
5464.089,0.05741362,
5462.160,0.05578141,
5460.231,0.05431644,
5458.303,0.05306256,
5456.374,0.05198551,
5454.445,0.05094474,
5452.517,0.04979476,
5450.588,0.04859983,
5448.659,0.04757393,
5446.730,0.04679572,
5444.802,0.04617196,
5442.873,0.04560331,
5440.944,0.04509734,
5439.015,0.04468763,
5437.087,0.04431706,
5435.158,0.04396756,
5433.229,0.04365477,
5431.301,0.04333578,
5429.372,0.04308099,
5427.443,0.04300723,
5425.514,0.04304894,
5423.586,0.04313165,
5421.657,0.04328646,
5419.728,0.043433,
5417.799,0.04344461,
5415.871,0.04342006,
5413.942,0.04360287,
5412.013,0.04407559,
5410.085,0.04470354,
5408.156,0.04536796,
5406.227,0.04601398,
5404.298,0.04661503,
5402.370,0.04727803,
5400.441,0.04813396,
5398.512,0.04912559,
5396.583,0.05011855,
5394.655,0.05117174,
5392.726,0.05242775,
5390.797,0.05385697,
5388.868,0.05530863,
5386.940,0.05671145,
5385.011,0.0582408,
5383.082,0.06011689,
5381.154,0.0622255,
5379.225,0.06425783,
5377.296,0.06623992,
5375.367,0.06853822,
5373.439,0.07122707,
5371.510,0.07404414,
5369.581,0.07690451,
5367.652,0.07988019,
5365.724,0.08295827,
5363.795,0.08615952,
5361.866,0.08956741,
5359.938,0.09318551,
5358.009,0.09689038,
5356.080,0.1005352,
5354.151,0.1042895,
5352.223,0.1083899,
5350.294,0.1126176,
5348.365,0.1166273,
5346.436,0.120459,
5344.508,0.1246159,
5342.579,0.1292008,
5340.650,0.1335579,
5338.722,0.1376954,
5336.793,0.1421624,
5334.864,0.1466418,
5332.935,0.1506873,
5331.007,0.1543964,
5329.078,0.1577825,
5327.149,0.1609914,
5325.220,0.164202,
5323.292,0.1670412,
5321.363,0.1691869,
5319.434,0.1707201,
5317.506,0.1717564,
5315.577,0.1723538,
5313.648,0.1724475,
5311.719,0.1718777,
5309.791,0.1706133,
5307.862,0.1688926,
5305.933,0.1668874,
5304.004,0.1643695,
5302.076,0.1611895,
5300.147,0.1576274,
5298.218,0.1539443,
5296.290,0.1500658,
5294.361,0.1457967,
5292.432,0.1411323,
5290.503,0.1364072,
5288.575,0.1318792,
5286.646,0.1273877,
5284.717,0.1228366,
5282.788,0.1183096,
5280.860,0.1138071,
5278.931,0.1093837,
5277.002,0.1051579,
5275.073,0.1011563,
5273.145,0.09723454,
5271.216,0.09325548,
5269.287,0.08931908,
5267.359,0.08554134,
5265.430,0.08192503,
5263.501,0.07860582,
5261.572,0.07568939,
5259.644,0.07294268,
5257.715,0.07014982,
5255.786,0.06744921,
5253.857,0.06504461,
5251.929,0.06281099,
5250.000,0.06054202,
5248.071,0.05839027,
5246.143,0.05652377,
5244.214,0.05487967,
5242.285,0.0533795,
5240.356,0.05193636,
5238.428,0.05055948,
5236.499,0.04931506,
5234.570,0.04810461,
5232.641,0.04686113,
5230.713,0.0457363,
5228.784,0.04481504,
5226.855,0.04398198,
5224.927,0.04321716,
5222.998,0.04259913,
5221.069,0.04208976,
5219.140,0.04163802,
5217.212,0.04124377,
5215.283,0.04084085,
5213.354,0.04038773,
5211.425,0.03997537,
5209.497,0.03967955,
5207.568,0.0395001,
5205.639,0.03944068,
5203.711,0.03947165,
5201.782,0.03950724,
5199.853,0.03952127,
5197.924,0.03960763,
5195.996,0.0398573,
5194.067,0.04022668,
5192.138,0.04060505,
5190.209,0.04095324,
5188.281,0.04130032,
5186.352,0.04170798,
5184.423,0.04221328,
5182.495,0.0428172,
5180.566,0.04356726,
5178.637,0.04442794,
5176.708,0.04530255,
5174.780,0.046243,
5172.851,0.0472883,
5170.922,0.04840931,
5168.993,0.04964682,
5167.065,0.05101339,
5165.136,0.05248129,
5163.207,0.05407431,
5161.278,0.05580337,
5159.350,0.05762704,
5157.421,0.05955017,
5155.492,0.061672,
5153.564,0.0640574,
5151.635,0.06662957,
5149.706,0.06930865,
5147.777,0.07209656,
5145.849,0.07500319,
5143.920,0.07807584,
5141.991,0.08135792,
5140.062,0.0848165,
5138.134,0.08840809,
5136.205,0.0921351,
5134.276,0.09602834,
5132.348,0.1000726,
5130.419,0.1042421,
5128.490,0.1085408,
5126.561,0.1129622,
5124.633,0.1174772,
5122.704,0.1219895,
5120.775,0.1264587,
5118.846,0.1309365,
5116.918,0.1353788,
5114.989,0.1397413,
5113.060,0.1440334,
5111.132,0.1482067,
5109.203,0.1522114,
5107.274,0.1559765,
5105.345,0.1593737,
5103.417,0.1623277,
5101.488,0.1648502,
5099.559,0.1669828,
5097.630,0.168719,
5095.702,0.1699361,
5093.773,0.1704925,
5091.844,0.1703697,
5089.916,0.1696215,
5087.987,0.1683059,
5086.058,0.166453,
5084.129,0.1640385,
5082.201,0.1610833,
5080.272,0.1576869,
5078.343,0.1539148,
5076.414,0.149785,
5074.486,0.1453795,
5072.557,0.1408348,
5070.628,0.1361944,
5068.700,0.1314362,
5066.771,0.1266028,
5064.842,0.1217733,
5062.913,0.1169874,
5060.985,0.1122786,
5059.056,0.1077007,
5057.127,0.1032394,
5055.198,0.09886143,
5053.270,0.09462392,
5051.341,0.09055626,
5049.412,0.08663926,
5047.483,0.0829253,
5045.555,0.07943163,
5043.626,0.07606058,
5041.697,0.0727898,
5039.769,0.06970781,
5037.840,0.06686421,
5035.911,0.06425499,
5033.982,0.06181031,
5032.054,0.05944091,
5030.125,0.05717932,
5028.196,0.05511947,
5026.267,0.05327177,
5024.339,0.05156276,
5022.410,0.04993764,
5020.481,0.04840241,
5018.553,0.04695904,
5016.624,0.04560575,
5014.695,0.04437587,
5012.766,0.04329385,
5010.838,0.04232655,
5008.909,0.0414434,
5006.980,0.04064994,
5005.051,0.03990728,
5003.123,0.03919053,
5001.194,0.03855433,
4999.265,0.03801601,
4997.337,0.03754766,
4995.408,0.03712136,
4993.479,0.03672681,
4991.550,0.03639939,
4989.622,0.03614223,
4987.693,0.0359589,
4985.764,0.03588079,
4983.835,0.03586222,
4981.907,0.03586804,
4979.978,0.03591795,
4978.049,0.03597964,
4976.121,0.03602505,
4974.192,0.03613397,
4972.263,0.03640792,
4970.334,0.03679717,
4968.406,0.03717396,
4966.477,0.03753414,
4964.548,0.03796533,
4962.619,0.03850563,
4960.691,0.03912428,
4958.762,0.03981042,
4956.833,0.04059286,
4954.904,0.04145945,
4952.976,0.0423703,
4951.047,0.0433486,
4949.118,0.04444123,
4947.190,0.0456556,
4945.261,0.04698277,
4943.332,0.0483889,
4941.403,0.04988434,
4939.475,0.05154534,
4937.546,0.05337595,
4935.617,0.0553329,
4933.688,0.05741765,
4931.760,0.05967177,
4929.831,0.06212316,
4927.902,0.06474585,
4925.974,0.06754033,
4924.045,0.07054097,
4922.116,0.07375331,
4920.187,0.07717663,
4918.259,0.08080375,
4916.330,0.08462552,
4914.401,0.08863898,
4912.472,0.09277981,
4910.544,0.09697887,
4908.615,0.10128,
4906.686,0.1057217,
4904.758,0.1102899,
4902.829,0.1150086,
4900.900,0.1198541,
4898.971,0.124748,
4897.043,0.1296436,
4895.114,0.13451,
4893.185,0.1393419,
4891.256,0.1441187,
4889.328,0.1487201,
4887.399,0.1530517,
4885.470,0.1571235,
4883.542,0.160899,
4881.613,0.1643097,
4879.684,0.1672851,
4877.755,0.1696851,
4875.827,0.1714367,
4873.898,0.1725485,
4871.969,0.1729883,
4870.040,0.1727246,
4868.112,0.1717377,
4866.183,0.1700073,
4864.254,0.1675947,
4862.326,0.1646065,
4860.397,0.1610648,
4858.468,0.1570029,
4856.539,0.1525591,
4854.611,0.1478075,
4852.682,0.1427776,
4850.753,0.1376141,
4848.824,0.132415,
4846.896,0.127151,
4844.967,0.1218514,
4843.038,0.1165921,
4841.109,0.1114207,
4839.181,0.1063972,
4837.252,0.1015633,
4835.323,0.09692104,
4833.395,0.09245632,
4831.466,0.08815563,
4829.537,0.08403071,
4827.608,0.08011042,
4825.680,0.07636791,
4823.751,0.07276659,
4821.822,0.06938873,
4819.893,0.06629224,
4817.965,0.06341027,
4816.036,0.0607051,
4814.107,0.05815815,
4812.179,0.05572748,
4810.250,0.05343609,
4808.321,0.05133816,
4806.392,0.04941788,
4804.464,0.04762829,
4802.535,0.04597272,
4800.606,0.04446628,
4798.677,0.04309052,
4796.749,0.04183327,
4794.820,0.04068024,
4792.891,0.03959705,
4790.963,0.03860666,
4789.034,0.03773127,
4787.105,0.03691182,
4785.176,0.03615261,
4783.248,0.03550025,
4781.319,0.03492148,
4779.390,0.03438294,
4777.461,0.03387601,
4775.533,0.03340882,
4773.604,0.03300099,
4771.675,0.03262251,
4769.747,0.03229604,
4767.818,0.03211309,
4765.889,0.03204709,
4763.960,0.03201134,
4762.032,0.03197997,
4760.103,0.03194419,
4758.174,0.03192513,
4756.245,0.03196284,
4754.317,0.03206778,
4752.388,0.0322288,
4750.459,0.03244422,
4748.531,0.03272258,
4746.602,0.03302799,
4744.673,0.03335126,
4742.744,0.03376466,
4740.816,0.03429259,
4738.887,0.03489641,
4736.958,0.03554187,
4735.029,0.03622085,
4733.101,0.03698334,
4731.172,0.03785792,
4729.243,0.03878937,
4727.314,0.03975381,
4725.386,0.04080509,
4723.457,0.04199152,
4721.528,0.04333679,
4719.600,0.044857,
4717.671,0.04651841,
4715.742,0.04825585,
4713.813,0.05008738,
4711.885,0.05208426,
4709.956,0.05424961,
4708.027,0.05659075,
4706.098,0.05915248,
4704.170,0.06190366,
4702.241,0.06479967,
4700.312,0.06786714,
4698.384,0.07112262,
4696.455,0.07454557,
4694.526,0.07814516,
4692.597,0.08194305,
4690.669,0.08589579,
4688.740,0.08994734,
4686.811,0.09411011,
4684.882,0.09841841,
4682.954,0.10286,
4681.025,0.1073804,
4679.096,0.1119447,
4677.168,0.1165591,
4675.239,0.1212245,
4673.310,0.1259141,
4671.381,0.1306469,
4669.453,0.1354678,
4667.524,0.1403016,
4665.595,0.1450018,
4663.666,0.1494574,
4661.738,0.1535939,
4659.809,0.1573649,
4657.880,0.160689,
4655.952,0.1634542,
4654.023,0.1655732,
4652.094,0.166968,
4650.165,0.1675617,
4648.237,0.1673017,
4646.308,0.1661952,
4644.379,0.1642879,
4642.450,0.1616109,
4640.522,0.1582057,
4638.593,0.154186,
4636.664,0.1496946,
4634.736,0.1448335,
4632.807,0.1396715,
4630.878,0.1342888,
4628.949,0.1288037,
4627.021,0.1232712,
4625.092,0.1177024,
4623.163,0.112194,
4621.234,0.106829,
4619.306,0.1016403,
4617.377,0.09666453,
4615.448,0.09188893,
4613.519,0.08728329,
4611.591,0.08287185,
4609.662,0.07870434,
4607.733,0.07477783,
4605.805,0.07106492,
4603.876,0.06758527,
4601.947,0.06431893,
4600.018,0.06120795,
4598.090,0.05828918,
4596.161,0.05560052,
4594.232,0.05310321,
4592.303,0.05078702,
4590.375,0.04863346,
4588.446,0.0466017,
4586.517,0.0446992,
4584.589,0.04294013,
4582.660,0.04133571,
4580.731,0.03988433,
4578.802,0.03856517,
4576.874,0.0373559,
4574.945,0.03621788,
4573.016,0.03516974,
4571.087,0.03425946,
4569.159,0.0334697,
4567.230,0.03277525,
4565.301,0.03212796,
4563.373,0.03146368,
4561.444,0.03081097,
4559.515,0.03024044,
4557.586,0.02978079,
4555.658,0.02941822,
4553.729,0.02911113,
4551.800,0.02883222,
4549.871,0.0285672,
4547.943,0.02832869,
4546.014,0.02814839,
4544.085,0.02800869,
4542.157,0.02790803,
4540.228,0.02786256,
4538.299,0.0278519,
4536.370,0.02790969,
4534.442,0.02803945,
4532.513,0.02817286,
4530.584,0.02833786,
4528.655,0.02856152,
4526.727,0.02880193,
4524.798,0.02909544,
4522.869,0.02947463,
4520.940,0.0298979,
4519.012,0.03035738,
4517.083,0.03086905,
4515.154,0.03144219,
4513.226,0.03208952,
4511.297,0.03282866,
4509.368,0.033668,
4507.439,0.0345618,
4505.511,0.03548384,
4503.582,0.03650305,
4501.653,0.03767814,
4499.724,0.03898469,
4497.796,0.04038434,
4495.867,0.04188244,
4493.938,0.04351715,
4492.010,0.04532702,
4490.081,0.04732839,
4488.152,0.04950893,
4486.223,0.05184435,
4484.295,0.05434109,
4482.366,0.05704784,
4480.437,0.06000891,
4478.508,0.06321235,
4476.580,0.06662071,
4474.651,0.07024009,
4472.722,0.07409309,
4470.794,0.07816699,
4468.865,0.08242016,
4466.936,0.08685911,
4465.007,0.09152504,
4463.079,0.09638274,
4461.150,0.1014095,
4459.221,0.1066052,
4457.292,0.1118847,
4455.364,0.117215,
4453.435,0.1226286,
4451.506,0.1280724,
4449.578,0.1334576,
4447.649,0.1387166,
4445.720,0.143764,
4443.791,0.1485124,
4441.863,0.1528746,
4439.934,0.15674,
4438.005,0.1600012,
4436.076,0.1625618,
4434.148,0.1643527,
4432.219,0.1653092,
4430.290,0.1653292,
4428.362,0.1643866,
4426.433,0.1625502,
4424.504,0.1598582,
4422.575,0.1563651,
4420.647,0.1521621,
4418.718,0.1473193,
4416.789,0.1419962,
4414.860,0.136415,
4412.932,0.1306614,
4411.003,0.1247487,
4409.074,0.1187826,
4407.145,0.1129026,
4405.217,0.1071375,
4403.288,0.1014617,
4401.359,0.09595386,
4399.431,0.09071302,
4397.502,0.08573417,
4395.573,0.08101044,
4393.644,0.07655305,
4391.716,0.07231889,
4389.787,0.06829946,
4387.858,0.06454985,
4385.929,0.06109504,
4384.001,0.05791283,
4382.072,0.05496225,
4380.143,0.05222114,
4378.215,0.04967993,
4376.286,0.04734748,
4374.357,0.04525004,
4372.428,0.04331315,
4370.500,0.04142528,
4368.571,0.03963498,
4366.642,0.0380605,
4364.713,0.03669778,
4362.785,0.03548267,
4360.856,0.03436783,
4358.927,0.03326161,
4356.999,0.03214378,
4355.070,0.03111748,
4353.141,0.03021957,
4351.212,0.02942653,
4349.284,0.02871491,
4347.355,0.02804133,
4345.426,0.02741434,
4343.497,0.02686965,
4341.569,0.02639867,
4339.640,0.02597715,
4337.711,0.02557345,
4335.783,0.02518379,
4333.854,0.02484469,
4331.925,0.02454519,
4329.996,0.02426771,
4328.068,0.02406025,
4326.139,0.02393835,
4324.210,0.02385302,
4322.281,0.02377875,
4320.353,0.02372535,
4318.424,0.02368633,
4316.495,0.02365743,
4314.567,0.02366119,
4312.638,0.02371206,
4310.709,0.02382277,
4308.780,0.02399075,
4306.852,0.02417535,
4304.923,0.02437941,
4302.994,0.02464671,
4301.065,0.02495392,
4299.137,0.02526296,
4297.208,0.02561359,
4295.279,0.02604657,
4293.350,0.02654921,
4291.422,0.0271132,
4289.493,0.02772782,
4287.564,0.028343,
4285.636,0.02897104,
4283.707,0.02969143,
4281.778,0.030509,
4279.849,0.03142067,
4277.921,0.03244817,
4275.992,0.03356535,
4274.063,0.034802,
4272.134,0.03620672,
4270.206,0.03773321,
4268.277,0.0393602,
4266.348,0.04111911,
4264.420,0.0429859,
4262.491,0.04497598,
4260.562,0.04721393,
4258.633,0.04975514,
4256.705,0.05254182,
4254.776,0.05553432,
4252.847,0.05873983,
4250.918,0.06217737,
4248.990,0.0658647,
4247.061,0.06982028,
4245.132,0.07403638,
4243.204,0.07847037,
4241.275,0.08311197,
4239.346,0.08796161,
4237.417,0.09294114,
4235.489,0.09796876,
4233.560,0.1030424,
4231.631,0.1081722,
4229.702,0.1133323,
4227.774,0.1184501,
4225.845,0.1234122,
4223.916,0.1281193,
4221.988,0.1325212,
4220.059,0.1366078,
4218.130,0.1403515,
4216.201,0.1436606,
4214.273,0.1464338,
4212.344,0.1485792,
4210.415,0.1499664,
4208.486,0.1505083,
4206.558,0.1501971,
4204.629,0.1489808,
4202.700,0.1468084,
4200.772,0.1437624,
4198.843,0.1400016,
4196.914,0.1356359,
4194.985,0.130714,
4193.057,0.1253423,
4191.128,0.1197311,
4189.199,0.1140506,
4187.270,0.1083682,
4185.342,0.1027583,
4183.413,0.09730541,
4181.484,0.0920376,
4179.555,0.08696976,
4177.627,0.08211757,
4175.698,0.07746959,
4173.769,0.07302903,
4171.841,0.06881044,
4169.912,0.06480658,
4167.983,0.06105186,
4166.054,0.05758817,
4164.126,0.05436643,
4162.197,0.0513433,
4160.268,0.04854124,
4158.339,0.04595772,
4156.411,0.04355786,
4154.482,0.04131198,
4152.553,0.03921008,
4150.625,0.03730416,
4148.696,0.03563679,
4146.767,0.03412379,
4144.838,0.03268278,
4142.910,0.03134544,
4140.981,0.0301354,
4139.052,0.02903739,
4137.123,0.02805242,
4135.195,0.02716051,
4133.266,0.02631808,
4131.337,0.02552286,
4129.409,0.02481726,
4127.480,0.02420807,
4125.551,0.02365337,
4123.622,0.02313353,
4121.694,0.02264918,
4119.765,0.02221134,
4117.836,0.02183338,
4115.907,0.02148085,
4113.979,0.02114197,
4112.050,0.02086924,
4110.121,0.02066615,
4108.193,0.02048353,
4106.264,0.02031284,
4104.335,0.02016194,
4102.406,0.02002261,
4100.478,0.0199194,
4098.549,0.0198834,
4096.620,0.01990071,
4094.691,0.01993952,
4092.763,0.01998142,
4090.834,0.02004956,
4088.905,0.02017974,
4086.977,0.02034376,
4085.048,0.02049445,
4083.119,0.02066109,
4081.190,0.02088877,
4079.262,0.02116299,
4077.333,0.02148123,
4075.404,0.02186495,
4073.475,0.02229834,
4071.547,0.02275758,
4069.618,0.0232416,
4067.689,0.02377116,
4065.760,0.02437435,
4063.832,0.02505577,
4061.903,0.02582414,
4059.974,0.0266929,
4058.046,0.02763849,
4056.117,0.02863753,
4054.188,0.02970402,
4052.259,0.03087237,
4050.331,0.03216932,
4048.402,0.03359178,
4046.473,0.03514499,
4044.544,0.03687061,
4042.616,0.03878236,
4040.687,0.04086395,
4038.758,0.04313125,
4036.830,0.04561193,
4034.901,0.04833113,
4032.972,0.05131,
4031.043,0.05454339,
4029.115,0.05803072,
4027.186,0.06177258,
4025.257,0.06574453,
4023.328,0.06992497,
4021.400,0.07429562,
4019.471,0.07885159,
4017.542,0.08362746,
4015.614,0.08864659,
4013.685,0.09387095,
4011.756,0.09922317,
4009.827,0.1046671,
4007.899,0.1102352,
4005.970,0.1159009,
4004.041,0.1215268,
4002.112,0.1269848,
4000.184,0.1321721,
3998.255,0.136938,
3996.326,0.1411395,
3994.398,0.1446723,
3992.469,0.1473833,
3990.540,0.1490989,
3988.611,0.1497096,
3986.683,0.1491509,
3984.754,0.1474112,
3982.825,0.1446031,
3980.896,0.1409178,
3978.968,0.1364793,
3977.039,0.1313942,
3975.110,0.125857,
3973.181,0.1200389,
3971.253,0.1140197,
3969.324,0.1078868,
3967.395,0.1018003,
3965.467,0.09585501,
3963.538,0.09002366,
3961.609,0.08438415,
3959.680,0.07906783,
3957.752,0.07406355,
3955.823,0.06935806,
3953.894,0.06495686,
3951.965,0.06081336,
3950.037,0.05697535,
3948.108,0.053546,
3946.179,0.05040447,
3944.251,0.04733149,
3942.322,0.0444347,
3940.393,0.04188873,
3938.464,0.03955384,
3936.536,0.03729214,
3934.607,0.03515169,
3932.678,0.03325356,
3930.749,0.03165017,
3928.821,0.03021346,
3926.892,0.02880717,
3924.963,0.02747519,
3923.035,0.02629095,
3921.106,0.02517073,
3919.177,0.02409897,
3917.248,0.02322538,
3915.320,0.02257324,
3913.391,0.02199655,
3911.462,0.02140133,
3909.533,0.02077912,
3907.605,0.02006347,
3905.676,0.01924893,
3903.747,0.01851662,
3901.819,0.01801373,
3899.890,0.01773495,
3897.961,0.01761751,
3896.032,0.01751359,
3894.104,0.01723478,
3892.175,0.01687355,
3890.246,0.01665352,
3888.317,0.01646197,
3886.389,0.01620751,
3884.460,0.01609063,
3882.531,0.01607201,
3880.603,0.01603646,
3878.674,0.01609754,
3876.745,0.01614378,
3874.816,0.01605788,
3872.888,0.01590892,
3870.959,0.01576407,
3869.030,0.01581385,
3867.101,0.01600473,
3865.173,0.01615012,
3863.244,0.01637609,
3861.315,0.01673543,
3859.386,0.01700235,
3857.458,0.01690376,
3855.529,0.01647643,
3853.600,0.01637221,
3851.672,0.01710884,
3849.743,0.01816467,
3847.814,0.01895469,
3845.885,0.01949484,
3843.957,0.01995741,
3842.028,0.02037429,
3840.099,0.02070963,
3838.170,0.02125081,
3836.242,0.02224863,
3834.313,0.02342933,
3832.384,0.02460343,
3830.456,0.02585229,
3828.527,0.02712809,
3826.598,0.02838345,
3824.669,0.02959109,
3822.741,0.03073054,
3820.812,0.03225413,
3818.883,0.03422347,
3816.954,0.03634752,
3815.026,0.039171,
3813.097,0.0426604,
3811.168,0.04587584,
3809.240,0.04857027,
3807.311,0.05161289,
3805.382,0.05540353,
3803.453,0.05903962,
3801.525,0.06300434,
3799.596,0.06840924,
3797.667,0.07436974,
3795.738,0.08022175,
3793.810,0.08626853,
3791.881,0.09236327,
3789.952,0.09828344,
3788.024,0.1039843,
3786.095,0.109552,
3784.166,0.1151518,
3782.237,0.1204214,
3780.309,0.1253303,
3778.380,0.1305193,
3776.451,0.1355585,
3774.522,0.1391496,
3772.594,0.1407227,
3770.665,0.141095,
3768.736,0.1412872,
3766.808,0.1409254,
3764.879,0.1394041,
3762.950,0.1364117,
3761.021,0.1317289,
3759.093,0.1263638,
3757.164,0.1209399,
3755.235,0.114155,
3753.306,0.105485,
3751.378,0.09710955,
3749.449,0.0910994,
3747.520,0.08577845,
3745.591,0.07936901,
3743.663,0.07404646,
3741.734,0.07072415,
3739.805,0.06668346,
3737.877,0.06114706,
3735.948,0.05577459,
3734.019,0.05152146,
3732.090,0.04822766,
3730.162,0.04539753,
3728.233,0.04250954,
3726.304,0.03948076,
3724.375,0.03667307,
3722.447,0.03423307,
3720.518,0.03212525,
3718.589,0.03027025,
3716.661,0.02845026,
3714.732,0.0265162,
3712.803,0.02461935,
3710.874,0.0232112,
3708.946,0.02231967,
3707.017,0.02151979,
3705.088,0.02060031,
3703.159,0.01962371,
3701.231,0.01879649,
3699.302,0.01818549,
3697.373,0.01765126,
3695.445,0.01704602,
3693.516,0.01631983,
3691.587,0.01551128,
3689.658,0.01481606,
3687.730,0.0145196,
3685.801,0.0145078,
3683.872,0.01440835,
3681.943,0.01411408,
3680.015,0.01370759,
3678.086,0.01320185,
3676.157,0.01275527,
3674.229,0.01260097,
3672.300,0.01253233,
3670.371,0.01242835,
3668.442,0.01249982,
3666.514,0.01267374,
3664.585,0.01274691,
3662.656,0.01273077,
3660.727,0.01268649,
3658.799,0.01259809,
3656.870,0.01253858,
3654.941,0.01259346,
3653.013,0.01259468,
3651.084,0.01244963,
3649.155,0.01245777,
3647.226,0.01281329,
3645.298,0.01325686,
3643.369,0.01356017,
3641.440,0.01377582,
3639.511,0.01400007,
3637.583,0.01421954,
3635.654,0.01440398,
3633.725,0.01454231,
3631.796,0.01455999,
3629.868,0.01457594,
3627.939,0.01494276,
3626.010,0.01562648,
3624.082,0.0162248,
3622.153,0.01658101,
3620.224,0.01689266,
3618.295,0.01742211,
3616.367,0.01811306,
3614.438,0.01875461,
3612.509,0.01940211,
3610.580,0.02016939,
3608.652,0.02111733,
3606.723,0.02231454,
3604.794,0.02364434,
3602.866,0.02494976,
3600.937,0.02628371,
3599.008,0.02777912,
3597.079,0.02944319,
3595.151,0.03129165,
3593.222,0.03338702,
3591.293,0.03555319,
3589.364,0.0377081,
3587.436,0.04029562,
3585.507,0.04359164,
3583.578,0.04721864,
3581.650,0.05085101,
3579.721,0.05453912,
3577.792,0.058392,
3575.863,0.06246834,
3573.935,0.06674986,
3572.006,0.0709841,
3570.077,0.07482882,
3568.148,0.07862269,
3566.220,0.08314384,
3564.291,0.08816966,
3562.362,0.09281146,
3560.434,0.09680736,
3558.505,0.1002729,
3556.576,0.1030701,
3554.647,0.104994,
3552.719,0.1061189,
3550.790,0.1064808,
3548.861,0.1058008,
3546.932,0.1040973,
3545.004,0.101799,
3543.075,0.09900264,
3541.146,0.09552152,
3539.217,0.09137733,
3537.289,0.08679032,
3535.360,0.08202819,
3533.431,0.07723033,
3531.503,0.07239167,
3529.574,0.06758542,
3527.645,0.06298072,
3525.716,0.05866049,
3523.788,0.05461881,
3521.859,0.05084621,
3519.930,0.04730387,
3518.001,0.04396901,
3516.073,0.04086583,
3514.144,0.03799151,
3512.215,0.03533005,
3510.287,0.03289463,
3508.358,0.03068415,
3506.429,0.02864153,
3504.500,0.02674799,
3502.572,0.02506049,
3500.643,0.02357468,
3498.714,0.02223649,
3496.785,0.02103048,
3494.857,0.01994011,
3492.928,0.01893644,
3490.999,0.01799723,
3489.071,0.01712081,
3487.142,0.01633505,
3485.213,0.01565244,
3483.284,0.01505485,
3481.356,0.01451722,
3479.427,0.01400592,
3477.498,0.01351158,
3475.569,0.01306354,
3473.641,0.01267361,
3471.712,0.01232649,
3469.783,0.01199855,
3467.855,0.01168599,
3465.926,0.01141346,
3463.997,0.01117489,
3462.068,0.01094838,
3460.140,0.01073684,
3458.211,0.01054158,
3456.282,0.01036928,
3454.353,0.01024463,
3452.425,0.01016644,
3450.496,0.01009634,
3448.567,0.01001992,
3446.639,0.009949878,
3444.710,0.009889721,
3442.781,0.009837292,
3440.852,0.00979132,
3438.924,0.009765198,
3436.995,0.00977184,
3435.066,0.009814691,
3433.137,0.009888478,
3431.209,0.009953211,
3429.280,0.00998741,
3427.351,0.01003241,
3425.422,0.01012272,
3423.494,0.01025105,
3421.565,0.0103956,
3419.636,0.01053043,
3417.708,0.01064521,
3415.779,0.01074618,
3413.850,0.01085069,
3411.921,0.010998,
3409.993,0.01119144,
3408.064,0.01138172,
3406.135,0.01155441,
3404.206,0.01174823,
3402.278,0.01200762,
3400.349,0.01235059,
3398.420,0.01276154,
3396.492,0.01322372,
3394.563,0.01374048,
3392.634,0.01432362,
3390.705,0.01499274,
3388.777,0.01576519,
3386.848,0.01662654,
3384.919,0.01755962,
3382.990,0.01857899,
3381.062,0.0196982,
3379.133,0.02094345,
3377.204,0.02236104,
3375.276,0.02396624,
3373.347,0.02576438,
3371.418,0.0277669,
3369.489,0.02997846,
3367.561,0.03242148,
3365.632,0.03512971,
3363.703,0.03811068,
3361.774,0.04133549,
3359.846,0.04479163,
3357.917,0.04850074,
3355.988,0.05246661,
3354.060,0.05665665,
3352.131,0.06102391,
3350.202,0.06552968,
3348.273,0.07012734,
3346.345,0.07477739,
3344.416,0.07945183,
3342.487,0.08404393,
3340.558,0.0883826,
3338.630,0.0923123,
3336.701,0.09568091,
3334.772,0.09833384,
3332.844,0.1001272,
3330.915,0.1009331,
3328.986,0.1006689,
3327.057,0.09932999,
3325.129,0.09699579,
3323.200,0.09378923,
3321.271,0.08983357,
3319.342,0.0852893,
3317.414,0.08038071,
3315.485,0.07529824,
3313.556,0.07016732,
3311.627,0.06511351,
3309.699,0.06024237,
3307.770,0.05559897,
3305.841,0.05119195,
3303.913,0.04704657,
3301.984,0.04321446,
3300.055,0.03970893,
3298.126,0.03649443,
3296.198,0.0335484,
3294.269,0.03086023,
3292.340,0.02841366,
3290.411,0.02620531,
3288.483,0.02423647,
3286.554,0.02250912,
3284.625,0.02100366,
3282.697,0.01965243,
3280.768,0.0184004,
3278.839,0.0172548,
3276.910,0.01625053,
3274.982,0.01538362,
3273.053,0.01460517,
3271.124,0.01388689,
3269.195,0.01323551,
3267.267,0.01266667,
3265.338,0.01217649,
3263.409,0.01173528,
3261.481,0.01131555,
3259.552,0.01089367,
3257.623,0.01049181,
3255.694,0.010171,
3253.766,0.009920764,
3251.837,0.009680334,
3249.908,0.009434143,
3247.979,0.009204327,
3246.051,0.009004296,
3244.122,0.008828067,
3242.193,0.008669275,
3240.265,0.008526335,
3238.336,0.008406454,
3236.407,0.008315879,
3234.478,0.008235491,
3232.550,0.008154449,
3230.621,0.008088915,
3228.692,0.008046078,
3226.763,0.008026769,
3224.835,0.008025806,
3222.906,0.008025558,
3220.977,0.008024206,
3219.049,0.008038117,
3217.120,0.008067662,
3215.191,0.008097569,
3213.262,0.008133899,
3211.334,0.008185226,
3209.405,0.008246052,
3207.476,0.008321298,
3205.547,0.00841575,
3203.619,0.008548247,
3201.690,0.00873228,
3199.761,0.00893581,
3197.832,0.009143683,
3195.904,0.009370524,
3193.975,0.009622313,
3192.046,0.009899962,
3190.118,0.01021081,
3188.189,0.01056309,
3186.260,0.01094212,
3184.331,0.01135357,
3182.403,0.01182375,
3180.474,0.01233238,
3178.545,0.01287263,
3176.616,0.01347906,
3174.688,0.01416865,
3172.759,0.014956,
3170.830,0.01586552,
3168.902,0.01690945,
3166.973,0.01807867,
3165.044,0.01937049,
3163.115,0.02082837,
3161.187,0.02250182,
3159.258,0.02440961,
3157.329,0.026572,
3155.400,0.02900398,
3153.472,0.03169317,
3151.543,0.03466061,
3149.614,0.03798505,
3147.686,0.04168639,
3145.757,0.0456965,
3143.828,0.04997128,
3141.899,0.05449982,
3139.971,0.05926591,
3138.042,0.06423824,
3136.113,0.06932289,
3134.184,0.07438758,
3132.256,0.07931165,
3130.327,0.08393424,
3128.398,0.08803451,
3126.470,0.09137651,
3124.541,0.09372221,
3122.612,0.09487418,
3120.683,0.09470504,
3118.755,0.09314507,
3116.826,0.09027074,
3114.897,0.08631779,
3112.968,0.08154324,
3111.040,0.07619769,
3109.111,0.07055348,
3107.182,0.06485935,
3105.253,0.0592854,
3103.325,0.0539332,
3101.396,0.04889458,
3099.467,0.04424212,
3097.539,0.03998915,
3095.610,0.0361119,
3093.681,0.03258692,
3091.752,0.02940709,
3089.824,0.026584,
3087.895,0.02411045,
3085.966,0.02194002,
3084.037,0.02003763,
3082.109,0.01836554,
3080.180,0.01687313,
3078.251,0.01556483,
3076.323,0.01445255,
3074.394,0.01348964,
3072.465,0.01262168,
3070.536,0.01183438,
3068.608,0.0111392,
3066.679,0.01052434,
3064.750,0.009961745,
3062.821,0.009457431,
3060.893,0.009024302,
3058.964,0.008646928,
3057.035,0.008313957,
3055.107,0.008022686,
3053.178,0.007754105,
3051.249,0.007493437,
3049.320,0.007250047,
3047.392,0.007037373,
3045.463,0.006858653,
3043.534,0.006710187,
3041.605,0.006585917,
3039.677,0.006483268,
3037.748,0.006392178,
3035.819,0.006311677,
3033.891,0.00626111,
3031.962,0.006224779,
3030.033,0.006182181,
3028.104,0.006163351,
3026.176,0.006178756,
3024.247,0.006207599,
3022.318,0.006259695,
3020.389,0.006357671,
3018.461,0.00649504,
3016.532,0.006639801,
3014.603,0.006781983,
3012.675,0.006967861,
3010.746,0.007236504,
3008.817,0.007570516,
3006.888,0.00795616,
3004.960,0.008410488,
3003.031,0.008953935,
3001.102,0.009609391,
2999.173,0.01041171,
2997.245,0.01140134,
2995.316,0.01259288,
2993.387,0.01397038,
2991.458,0.01548653,
2989.530,0.0170172,
2987.601,0.01833234,
2985.672,0.01910541,
2983.744,0.01901972,
2981.815,0.01793421,
2979.886,0.01594212,
2977.957,0.01334883,
2976.029,0.01059543,
2974.100,0.00807254,
2972.171,0.005968424,
2970.242,0.00431584,
2968.314,0.003096771,
2966.385,0.002233804,
2964.456,0.00160704,
2962.528,0.001152842,
2960.599,0.0008542193,
2958.670,0.0006653366,
2956.741,0.0005317665,
2954.813,0.0004318689,
2952.884,0.0003626448,
2950.955,0.0003070991,
2949.026,0.0002406112,
2947.098,0.0001786014,
2945.169,0.0001464401,
2943.240,0.0001225851,
2941.312,9.448381E-5,
2939.383,8.347881E-5,
2937.454,0.0001046877,
2935.525,0.0001290388,
2933.597,0.0001443528,
2931.668,0.0001687203,
2929.739,0.000206814,
2927.810,0.0002763241,
2925.882,0.0003996554,
2923.953,0.0005546393,
2922.024,0.0007034201,
2920.096,0.0008613671,
2918.167,0.001075722,
2916.238,0.00134051,
2914.309,0.00159649,
2912.381,0.001801363,
2910.452,0.001968568,
2908.523,0.002142333,
2906.594,0.002338341,
2904.666,0.0025423,
2902.737,0.002752765,
2900.808,0.002983443,
2898.880,0.003239506,
2896.951,0.003509108,
2895.022,0.003786261,
2893.093,0.004087483,
2891.165,0.004419679,
2889.236,0.004756477,
2887.307,0.005049649,
2885.378,0.005240322,
2883.450,0.005272247,
2881.521,0.005119891,
2879.592,0.004786819,
2877.663,0.004281879,
2875.735,0.003661811,
2873.806,0.003014603,
2871.877,0.002395816,
2869.949,0.001854772,
2868.020,0.001420008,
2866.091,0.001105801,
2864.162,0.0009425111,
2862.234,0.0009135068,
2860.305,0.0009859619,
2858.376,0.001191865,
2856.447,0.001564469,
2854.519,0.002087602,
2852.590,0.002768116,
2850.661,0.003649451,
2848.733,0.004777067,
2846.804,0.006198658,
2844.875,0.0079461,
2842.946,0.01004689,
2841.018,0.01251586,
2839.089,0.0152541,
2837.160,0.01800796,
2835.231,0.02047711,
2833.303,0.02246984,
2831.374,0.02397374,
2829.445,0.0251127,
2827.517,0.02608061,
2825.588,0.02707078,
2823.659,0.02812101,
2821.730,0.0290407,
2819.802,0.02955354,
2817.873,0.02942815,
2815.944,0.02855283,
2814.015,0.02699772,
2812.087,0.02497677,
2810.158,0.02276679,
2808.229,0.02058151,
2806.301,0.01849138,
2804.372,0.01653998,
2802.443,0.01480797,
2800.514,0.01333475,
2798.586,0.01211063,
2796.657,0.0111089,
2794.728,0.01029148,
2792.799,0.009598626,
2790.871,0.008955897,
2788.942,0.008340143,
2787.013,0.007788635,
2785.085,0.0073223,
2783.156,0.006912895,
2781.227,0.00654513,
2779.298,0.006248219,
2777.370,0.006013741,
2775.441,0.005793117,
2773.512,0.005575282,
2771.583,0.005362866,
2769.655,0.005160382,
2767.726,0.004986693,
2765.797,0.004843005,
2763.868,0.004719696,
2761.940,0.004611107,
2760.011,0.00452197,
2758.082,0.004465279,
2756.154,0.004428595,
2754.225,0.004386827,
2752.296,0.004334926,
2750.367,0.004290125,
2748.439,0.004274357,
2746.510,0.004279533,
2744.581,0.004282231,
2742.652,0.004278016,
2740.724,0.004272382,
2738.795,0.004277387,
2736.866,0.004308683,
2734.938,0.004361745,
2733.009,0.004411835,
2731.080,0.004450791,
2729.151,0.004495256,
2727.223,0.004566389,
2725.294,0.004670175,
2723.365,0.004793242,
2721.436,0.004928003,
2719.508,0.005074631,
2717.579,0.005225832,
2715.650,0.005375321,
2713.722,0.005534708,
2711.793,0.005726626,
2709.864,0.005949135,
2707.935,0.006192095,
2706.007,0.006467929,
2704.078,0.00677511,
2702.149,0.007110326,
2700.220,0.007500398,
2698.292,0.007954621,
2696.363,0.008460238,
2694.434,0.009024175,
2692.506,0.009670801,
2690.577,0.01042292,
2688.648,0.01128311,
2686.719,0.01223936,
2684.791,0.01328507,
2682.862,0.014403,
2680.933,0.01555331,
2679.004,0.01669027,
2677.076,0.01780762,
2675.147,0.01898368,
2673.218,0.02031061,
2671.290,0.02181252,
2669.361,0.02355362,
2667.432,0.02575261,
2665.503,0.0286653,
2663.575,0.03235964,
2661.646,0.03663016,
2659.717,0.04114198,
2657.788,0.04561606,
2655.860,0.04984299,
2653.931,0.05367657,
2652.002,0.05708735,
2650.073,0.06008577,
2648.145,0.06262697,
2646.216,0.06463443,
2644.287,0.06597033,
2642.359,0.06636252,
2640.430,0.06549685,
2638.501,0.06322905,
2636.572,0.05968116,
2634.644,0.05519526,
2632.715,0.05022039,
2630.786,0.04516188,
2628.857,0.04028264,
2626.929,0.03571224,
2625.000,0.03152827,
2623.071,0.02780197,
2621.143,0.02456177,
2619.214,0.02176304,
2617.285,0.01934844,
2615.356,0.01730406,
2613.428,0.01558729,
2611.499,0.01411146,
2609.570,0.01283048,
2607.641,0.01172858,
2605.713,0.01078364,
2603.784,0.009966413,
2601.855,0.00924166,
2599.927,0.008587185,
2597.998,0.007996021,
2596.069,0.007458088,
2594.140,0.00697583,
2592.212,0.006571733,
2590.283,0.006241591,
2588.354,0.005938701,
2586.425,0.005620907,
2584.497,0.005309757,
2582.568,0.005060917,
2580.639,0.00485861,
2578.711,0.004662077,
2576.782,0.004492027,
2574.853,0.004346308,
2572.924,0.004198525,
2570.996,0.004074949,
2569.067,0.003977056,
2567.138,0.003860705,
2565.209,0.003728071,
2563.281,0.003602404,
2561.352,0.003498395,
2559.423,0.003436928,
2557.494,0.003404601,
2555.566,0.0033721,
2553.637,0.003339882,
2551.708,0.003302772,
2549.780,0.003237911,
2547.851,0.003166739,
2545.922,0.003140884,
2543.993,0.003161938,
2542.065,0.003193436,
2540.136,0.003204189,
2538.207,0.003182689,
2536.278,0.00314843,
2534.350,0.003135117,
2532.421,0.003164441,
2530.492,0.003214895,
2528.564,0.003243544,
2526.635,0.003255036,
2524.706,0.003278922,
2522.777,0.003313982,
2520.849,0.003348982,
2518.920,0.003381525,
2516.991,0.003415978,
2515.062,0.003459967,
2513.134,0.003517685,
2511.205,0.003596105,
2509.276,0.003686073,
2507.348,0.003769014,
2505.419,0.003863845,
2503.490,0.00399588,
2501.561,0.004146526,
2499.633,0.0042881,
2497.704,0.004434625,
2495.775,0.004622574,
2493.846,0.004859346,
2491.918,0.005119621,
2489.989,0.005387355,
2488.060,0.005679909,
2486.132,0.006010266,
2484.203,0.006366519,
2482.274,0.006756025,
2480.345,0.007213505,
2478.417,0.007758332,
2476.488,0.008384198,
2474.559,0.0090866,
2472.630,0.009878426,
2470.702,0.01079574,
2468.773,0.01187494,
2466.844,0.01312255,
2464.916,0.01456448,
2462.987,0.01627301,
2461.058,0.01830391,
2459.129,0.02067167,
2457.201,0.02338132,
2455.272,0.02644565,
2453.343,0.02987098,
2451.414,0.03364355,
2449.486,0.0377452,
2447.557,0.04215484,
2445.628,0.04679561,
2443.699,0.05150641,
2441.771,0.05607735,
2439.842,0.06023678,
2437.913,0.06360214,
2435.985,0.06574333,
2434.056,0.0663185,
2432.127,0.06517751,
2430.198,0.06246171,
2428.270,0.05860652,
2426.341,0.05412774,
2424.412,0.04940796,
2422.483,0.04469249,
2420.555,0.04015403,
2418.626,0.03589785,
2416.697,0.03196756,
2414.769,0.0283675,
2412.840,0.0250826,
2410.911,0.02210766,
2408.982,0.0194615,
2407.054,0.01715575,
2405.125,0.01516654,
2403.196,0.01345501,
2401.267,0.01198518,
2399.339,0.01073054,
2397.410,0.009661387,
2395.481,0.008726981,
2393.553,0.007916088,
2391.624,0.007248716,
2389.695,0.006692515,
2387.766,0.006212492,
2385.838,0.005796297,
2383.909,0.005410914,
2381.980,0.005046382,
2380.051,0.004717279,
2378.123,0.004418632,
2376.194,0.004140304,
2374.265,0.003873354,
2372.337,0.003613281,
2370.408,0.003375229,
2368.479,0.003177976,
2366.550,0.003019325,
2364.622,0.002884657,
2362.693,0.002775606,
2360.764,0.002701821,
2358.835,0.002649989,
2356.907,0.002602446,
2354.978,0.002559164,
2353.049,0.002524484,
2351.121,0.00249832,
2349.192,0.002472872,
2347.263,0.00242195,
2345.334,0.002331936,
2343.406,0.002241829,
2341.477,0.002189407,
2339.548,0.00215761,
2337.619,0.002136365,
2335.691,0.002134707,
2333.762,0.00211835,
2331.833,0.002075143,
2329.904,0.002063287,
2327.976,0.002099965,
2326.047,0.002139737,
2324.118,0.002156824,
2322.190,0.002162824,
2320.261,0.002180266,
2318.332,0.002210399,
2316.403,0.002233058,
2314.475,0.00224449,
2312.546,0.002267801,
2310.617,0.002307191,
2308.688,0.002342116,
2306.760,0.002378451,
2304.831,0.002433187,
2302.902,0.002488093,
2300.974,0.002515923,
2299.045,0.002527547,
2297.116,0.002557847,
2295.187,0.002612516,
2293.259,0.002676623,
2291.330,0.002757011,
2289.401,0.002861278,
2287.472,0.002965949,
2285.544,0.003052497,
2283.615,0.003142729,
2281.686,0.003264251,
2279.758,0.003414501,
2277.829,0.003581415,
2275.900,0.003765313,
2273.971,0.003967253,
2272.043,0.004182186,
2270.114,0.004420988,
2268.185,0.004697485,
2266.256,0.005001017,
2264.328,0.005328845,
2262.399,0.005700535,
2260.470,0.00613749,
2258.542,0.006660617,
2256.613,0.007282127,
2254.684,0.008009132,
2252.755,0.008855374,
2250.827,0.009843557,
2248.898,0.01101834,
2246.969,0.01242771,
2245.040,0.01408975,
2243.112,0.01601476,
2241.183,0.01823838,
2239.254,0.020807,
2237.326,0.02373317,
2235.397,0.02698641,
2233.468,0.03052882,
2231.539,0.03431247,
2229.611,0.03824699,
2227.682,0.04217642,
2225.753,0.04587009,
2223.824,0.04904581,
2221.896,0.05137998,
2219.967,0.05254032,
2218.038,0.05229647,
2216.109,0.05062591,
2214.181,0.0477553,
2212.252,0.04409951,
2210.323,0.04007733,
2208.395,0.03595664,
2206.466,0.03190259,
2204.537,0.0280712,
2202.608,0.02457786,
2200.680,0.02147135,
2198.751,0.01873651,
2196.822,0.01631658,
2194.893,0.01419785,
2192.965,0.01239484,
2191.036,0.01087095,
2189.107,0.009578246,
2187.179,0.008494017,
2185.250,0.007589564,
2183.321,0.006833544,
2181.392,0.00619609,
2179.464,0.005645145,
2177.535,0.005171997,
2175.606,0.004780998,
2173.677,0.004454473,
2171.749,0.00417477,
2169.820,0.003935596,
2167.891,0.003719596,
2165.963,0.003518064,
2164.034,0.00331951,
2162.105,0.003103731,
2160.176,0.002901621,
2158.248,0.002760839,
2156.319,0.00266088,
2154.390,0.002554441,
2152.461,0.002443555,
2150.533,0.002341703,
2148.604,0.002241726,
2146.675,0.002159455,
2144.747,0.002103857,
2142.818,0.002049679,
2140.889,0.001989425,
2138.960,0.001934841,
2137.032,0.001883825,
2135.103,0.001827807,
2133.174,0.001772735,
2131.245,0.001737088,
2129.317,0.001722266,
2127.388,0.001702663,
2125.459,0.001666367,
2123.530,0.001632625,
2121.602,0.001610484,
2119.673,0.001596813,
2117.744,0.001591899,
2115.816,0.001590467,
2113.887,0.001584432,
2111.958,0.001574888,
2110.029,0.001563289,
2108.101,0.001553625,
2106.172,0.001558165,
2104.243,0.001567995,
2102.314,0.001567387,
2100.386,0.001570684,
2098.457,0.001593366,
2096.528,0.001622955,
2094.600,0.001641033,
2092.671,0.001651541,
2090.742,0.001669487,
2088.813,0.001702076,
2086.885,0.001743986,
2084.956,0.001776792,
2083.027,0.001793071,
2081.098,0.00181261,
2079.170,0.001851,
2077.241,0.001909742,
2075.312,0.001989857,
2073.384,0.002076537,
2071.455,0.002152685,
2069.526,0.002214676,
2067.597,0.002269496,
2065.669,0.00233411,
2063.740,0.0024156,
2061.811,0.002519912,
2059.882,0.002646774,
2057.954,0.002775356,
2056.025,0.002912444,
2054.096,0.003090543,
2052.168,0.003310378,
2050.239,0.003542924,
2048.310,0.003786715,
2046.381,0.004086455,
2044.453,0.004477738,
2042.524,0.004946998,
2040.595,0.005475919,
2038.666,0.006087633,
2036.738,0.006816853,
2034.809,0.007685605,
2032.880,0.008732741,
2030.952,0.0100186,
2029.023,0.01158221,
2027.094,0.01344484,
2025.165,0.01562775,
2023.237,0.01812232,
2021.308,0.02091189,
2019.379,0.02399295,
2017.450,0.02733395,
2015.522,0.03083778,
2013.593,0.03429563,
2011.664,0.03741572,
2009.735,0.03992518,
2007.807,0.04156817,
2005.878,0.04206703,
2003.949,0.04122924,
2002.021,0.0390867,
2000.092,0.03591151,
1998.163,0.03214154,
1996.234,0.02820095,
1994.306,0.02436587,
1992.377,0.02082654,
1990.448,0.01770731,
1988.519,0.01501855,
1986.591,0.01272892,
1984.662,0.01082125,
1982.733,0.009267002,
1980.805,0.008016541,
1978.876,0.007010723,
1976.947,0.006199987,
1975.018,0.005535663,
1973.090,0.004971203,
1971.161,0.00448661,
1969.232,0.004074254,
1967.303,0.003720883,
1965.375,0.003417467,
1963.446,0.003164291,
1961.517,0.002951551,
1959.589,0.002757995,
1957.660,0.002573944,
1955.731,0.002404178,
1953.802,0.002255416,
1951.874,0.002128115,
1949.945,0.002021183,
1948.016,0.001925947,
1946.087,0.001828375,
1944.159,0.001730027,
1942.230,0.001648044,
1940.301,0.001592832,
1938.373,0.001544699,
1936.444,0.00148893,
1934.515,0.00143928,
1932.586,0.001393005,
1930.658,0.001340339,
1928.729,0.001285835,
1926.800,0.001231609,
1924.871,0.00118931,
1922.943,0.001176207,
1921.014,0.001185036,
1919.085,0.001189817,
1917.157,0.001177736,
1915.228,0.001158537,
1913.299,0.001146946,
1911.370,0.001134217,
1909.442,0.001103459,
1907.513,0.001067008,
1905.584,0.001045772,
1903.655,0.001046649,
1901.727,0.001063999,
1899.798,0.001076933,
1897.869,0.001076656,
1895.940,0.001079147,
1894.012,0.001090391,
1892.083,0.00109645,
1890.154,0.001097633,
1888.226,0.001112607,
1886.297,0.001145763,
1884.368,0.001183366,
1882.439,0.001208502,
1880.511,0.001225576,
1878.582,0.001247397,
1876.653,0.001261696,
1874.724,0.001265175,
1872.796,0.001273631,
1870.867,0.001295825,
1868.938,0.001345581,
1867.010,0.001415161,
1865.081,0.001468239,
1863.152,0.001517705,
1861.223,0.001605957,
1859.295,0.001715321,
1857.366,0.001811839,
1855.437,0.001907745,
1853.508,0.002039561,
1851.580,0.00222306,
1849.651,0.002430484,
1847.722,0.002639611,
1845.794,0.002872644,
1843.865,0.003182587,
1841.936,0.003588147,
1840.007,0.004058339,
1838.079,0.004611989,
1836.150,0.005318786,
1834.221,0.006201032,
1832.292,0.007245085,
1830.364,0.008525744,
1828.435,0.01013342,
1826.506,0.01203302,
1824.578,0.01415519,
1822.649,0.01631683,
1820.720,0.01812272,
1818.791,0.01915792,
1816.863,0.01915055,
1814.934,0.01807492,
1813.005,0.01622556,
1811.076,0.01413718,
1809.148,0.01232602,
1807.219,0.01103025,
1805.290,0.01018293,
1803.362,0.00953703,
1801.433,0.008851041,
1799.504,0.008013316,
1797.575,0.007019075,
1795.647,0.005934157,
1793.718,0.004870228,
1791.789,0.003965478,
1789.860,0.00328933,
1787.932,0.002771852,
1786.003,0.00234096,
1784.074,0.002008929,
1782.145,0.001775466,
1780.217,0.001579903,
1778.288,0.001390841,
1776.359,0.001225044,
1774.431,0.001076304,
1772.502,0.0009390926,
1770.573,0.0008469418,
1768.644,0.0008138897,
1766.716,0.0008106347,
1764.787,0.0008025903,
1762.858,0.0007779489,
1760.929,0.0007493136,
1759.001,0.0007164842,
1757.072,0.0006826557,
1755.143,0.0006710588,
1753.215,0.0006734848,
1751.286,0.0006533962,
1749.357,0.0006231706,
1747.428,0.0006348754,
1745.500,0.0006900072,
1743.571,0.0007589933,
1741.642,0.0008560586,
1739.713,0.0009980312,
1737.785,0.00112087,
1735.856,0.001100647,
1733.927,0.0008965899,
1731.999,0.0006067015,
1730.070,0.000343952,
1728.141,0.000162127,
1726.212,7.366027E-5,
1724.284,5.347647E-5,
1722.355,2.336568E-5,
1720.426,2.155825E-5,
1718.497,4.284515E-5,
1716.569,3.810049E-5,
1714.640,3.860812E-5,
1712.711,4.976881E-5,
1710.783,5.974852E-5,
1708.854,5.563532E-5,
1706.925,4.455165E-5,
1704.996,3.923566E-5,
1703.068,1.971461E-5,
1701.139,5.300415E-5,
1699.210,0.000120081,
1697.281,0.0002183869,
1695.353,0.0003387414,
1693.424,0.0004549503,
1691.495,0.0005750632,
1689.567,0.0007520274,
1687.638,0.00101262,
1685.709,0.001393327,
1683.780,0.001938354,
1681.852,0.002514867,
1679.923,0.002895149,
1677.994,0.003018658,
1676.065,0.003040685,
1674.137,0.003113526,
1672.208,0.00316798,
1670.279,0.003092841,
1668.350,0.002920967,
1666.422,0.002686699,
1664.493,0.002364754,
1662.564,0.001991465,
1660.636,0.001665357,
1658.707,0.001423965,
1656.778,0.001225061,
1654.849,0.001036356,
1652.921,0.0009065162,
1650.992,0.0008585231,
1649.063,0.0008146893,
1647.134,0.000750948,
1645.206,0.0007078335,
1643.277,0.0006919594,
1641.348,0.0006803467,
1639.420,0.0006480894,
1637.491,0.0005989705,
1635.562,0.0005734576,
1633.633,0.000583148,
1631.705,0.0006010161,
1629.776,0.0006230187,
1627.847,0.0006439704,
1625.918,0.0006372001,
1623.990,0.0006173164,
1622.061,0.0006183587,
1620.132,0.000627374,
1618.204,0.0006212605,
1616.275,0.0006132419,
1614.346,0.0006218042,
1612.417,0.0006326259,
1610.489,0.0006278513,
1608.560,0.0006277003,
1606.631,0.00066192,
1604.702,0.0007103743,
1602.774,0.0007351579,
1600.845,0.0007446629,
1598.916,0.0007669217,
1596.988,0.0008000854,
1595.059,0.0008294372,
1593.130,0.0008562955,
1591.201,0.0008892504,
1589.273,0.0009341441,
1587.344,0.0009864204,
1585.415,0.001038425,
1583.486,0.00109894,
1581.558,0.001175562,
1579.629,0.001249227,
1577.700,0.001318968,
1575.771,0.001442128,
1573.843,0.001631595,
1571.914,0.001830384,
1569.985,0.002043762,
1568.057,0.002322839,
1566.128,0.002671083,
1564.199,0.00306236,
1562.270,0.00344744,
1560.342,0.003903244,
1558.413,0.00470718,
1556.484,0.005912686,
1554.555,0.007358665,
1552.627,0.009020294,
1550.698,0.0108784,
1548.769,0.01279916,
1546.841,0.01451621,
1544.912,0.01572463,
1542.983,0.0161762,
1541.054,0.01590467,
1539.126,0.01531216,
1537.197,0.01441508,
1535.268,0.01282815,
1533.339,0.01079335,
1531.411,0.00891404,
1529.482,0.007295893,
1527.553,0.005869923,
1525.625,0.004727162,
1523.696,0.003878775,
1521.767,0.003253831,
1519.838,0.002812923,
1517.910,0.002481699,
1515.981,0.002192426,
1514.052,0.001939443,
1512.123,0.001710226,
1510.195,0.001492826,
1508.266,0.001297317,
1506.337,0.001152652,
1504.409,0.001080695,
1502.480,0.001034654,
1500.551,0.0009558111,
1498.622,0.0008530905,
1496.694,0.0007740496,
1494.765,0.0007343587,
1492.836,0.0007066918,
1490.907,0.000666797,
1488.979,0.0006255257,
1487.050,0.000594592,
1485.121,0.0005602704,
1483.193,0.0005187237,
1481.264,0.0004810995,
1479.335,0.0004666377,
1477.406,0.0004669839,
1475.478,0.0004464884,
1473.549,0.0004075409,
1471.620,0.0003799725,
1469.691,0.0003707165,
1467.763,0.0003755329,
1465.834,0.0003868847,
1463.905,0.0003947997,
1461.976,0.0003877475,
1460.048,0.0003562207,
1458.119,0.0003121079,
1456.190,0.0002758909,
1454.262,0.0002463444,
1452.333,0.0002020952,
1450.404,0.0001505198,
1448.475,0.000147461,
1446.547,0.0002120999,
1444.618,0.0002780702,
1442.689,0.0003112013,
1440.760,0.0003241174,
1438.832,0.0003105803,
1436.903,0.000277643,
1434.974,0.0002542022,
1433.046,0.0002458821,
1431.117,0.0002457444,
1429.188,0.0002467904,
1427.259,0.0002297341,
1425.331,0.0002005811,
1423.402,0.0001961317,
1421.473,0.0002289631,
1419.544,0.0002696356,
1417.616,0.0002950752,
1415.687,0.0003116634,
1413.758,0.0003176218,
1411.830,0.0003058523,
1409.901,0.0002992606,
1407.972,0.000308362,
1406.043,0.0003142065,
1404.115,0.0003189849,
1402.186,0.0003376004,
1400.257,0.0003504826,
1398.328,0.0003437251,
1396.400,0.0003463895,
1394.471,0.0003765735,
1392.542,0.0004197518,
1390.614,0.0004523568,
1388.685,0.0004667835,
1386.756,0.0004707019,
1384.827,0.0004798569,
1382.899,0.0005109963,
1380.970,0.0005526901,
1379.041,0.0005870167,
1377.112,0.0006344795,
1375.184,0.0007104813,
1373.255,0.0007877778,
1371.326,0.0008536943,
1369.398,0.000933032,
1367.469,0.001052351,
1365.540,0.001212768,
1363.611,0.001411591,
1361.683,0.001672489,
1359.754,0.00202368,
1357.825,0.002433263,
1355.896,0.002711889,
1353.968,0.00258284,
1352.039,0.002014678,
1350.110,0.00132119,
1348.181,0.0008294727,
1346.253,0.0006400844,
1344.324,0.0006620167,
1342.395,0.0006947086,
1340.467,0.0006116466,
1338.538,0.0005180276,
1336.609,0.0005925248,
1334.680,0.0008810082,
1332.752,0.001311357,
1330.823,0.001757788,
1328.894,0.002057755,
1326.965,0.002072168,
1325.037,0.001801795,
1323.108,0.001394799,
1321.179,0.0009947671,
1319.251,0.0006600966,
1317.322,0.0004107597,
1315.393,0.0002554958,
1313.464,0.0001798422,
1311.536,0.0001637355,
1309.607,0.0002141567,
1307.678,0.0003486104,
1305.749,0.0005908844,
1303.821,0.000966126,
1301.892,0.001502644,
1299.963,0.002193089,
1298.035,0.002896918,
1296.106,0.003367819,
1294.177,0.003433113,
1292.248,0.003124109,
1290.320,0.002615163,
1288.391,0.002080841,
1286.462,0.001635149,
1284.533,0.001313833,
1282.605,0.001082177,
1280.676,0.0009031372,
1278.747,0.0007579617,
1276.819,0.0006347323,
1274.890,0.0005458984,
1272.961,0.0004981961,
1271.032,0.0004656227,
1269.104,0.0004221286,
1267.175,0.0003717505,
1265.246,0.0003460015,
1263.317,0.000345059,
1261.389,0.0003361019,
1259.460,0.0003187323,
1257.531,0.0003033051,
1255.603,0.0002911419,
1253.674,0.0002849867,
1251.745,0.0002669141,
1249.816,0.0002274311,
1247.888,0.0001973869,
1245.959,0.0001950428,
1244.030,0.000199276,
1242.101,0.0001843007,
1240.173,0.0001581622,
1238.244,0.0001542453,
1236.315,0.0001771047,
1234.386,0.0001930764,
1232.458,0.0001727868,
1230.529,0.0001518928,
1228.600,0.0001575215,
1226.672,0.0001529683,
1224.743,0.0001263143,
1222.814,0.0001077506,
1220.885,0.0001014825,
1218.957,0.000100659,
1217.028,0.0001329289,
1215.099,0.0001821366,
1213.170,0.0002048603,
1211.242,0.0002011868,
1209.313,0.0001897731,
1207.384,0.0001856025,
1205.456,0.000184502,
1203.527,0.0001696853,
1201.598,0.0001619889,
1199.669,0.0001774784,
1197.741,0.0001852915,
1195.812,0.0001834779,
1193.883,0.0001808574,
1191.954,0.0001732346,
1190.026,0.0001659003,
1188.097,0.0001708138,
1186.168,0.0001898345,
1184.240,0.0001993473,
1182.311,0.0001963321,
1180.382,0.0001946998,
1178.453,0.000193994,
1176.525,0.0001888846,
1174.596,0.000181843,
1172.667,0.000179817,
1170.738,0.000169622,
1168.810,0.0001355293,
1166.881,0.0001129033,
1164.952,0.0001284645,
1163.024,0.0001721301,
1161.095,0.0002185149,
1159.166,0.0002459375,
1157.237,0.0002612776,
1155.309,0.0002699112,
1153.380,0.0002616508,
1151.451,0.0002559287,
1149.522,0.0002871416,
1147.594,0.0003281324,
1145.665,0.0003604966,
1143.736,0.0004086003,
1141.807,0.0004626293,
1139.879,0.0005163202,
1137.950,0.0005930623,
1136.021,0.000684774,
1134.093,0.0007791666,
1132.164,0.0008359404,
1130.235,0.0007907694,
1128.306,0.0006516288,
1126.378,0.0004647481,
1124.449,0.0002728981,
1122.520,0.0001392006,
1120.591,8.688551E-5,
1118.663,9.822148E-5,
1116.734,8.93465E-5,
1114.805,0.0001171392,
1112.877,0.000154162,
1110.948,0.0001945523,
1109.019,0.0002357998,
1107.090,0.0003055996,
1105.162,0.0004110874,
1103.233,0.0005287742,
1101.304,0.0006722412,
1099.375,0.0008517994,
1097.447,0.001015328,
1095.518,0.001129754,
1093.589,0.00120999,
1091.661,0.001255309,
1089.732,0.001239957,
1087.803,0.001143278,
1085.874,0.0009726533,
1083.946,0.0007850656,
1082.017,0.000637773,
1080.088,0.0005296844,
1078.159,0.000425894,
1076.231,0.0003221971,
1074.302,0.0002564941,
1072.373,0.0002562065,
1070.445,0.0002831618,
1068.516,0.0002662786,
1066.587,0.0002066053,
1064.658,0.0001853303,
1062.730,0.0001997552,
1060.801,0.0001893971,
1058.872,0.0001494033,
1056.943,0.0001105424,
1055.015,6.308292E-5,
1053.086,5.071219E-5,
1051.157,0.0001160153,
1049.229,0.0002071114,
1047.300,0.0002480232,
1045.371,0.0002216569,
1043.442,0.0001700796,
1041.514,0.0001097925,
1039.585,5.189481E-5,
1037.656,6.285872E-5,
1035.727,8.605036E-5,
1033.799,0.000102396,
1031.870,0.000160252,
1029.941,0.0001830413,
1028.012,0.0001479953,
1026.084,0.0001009165,
1024.155,9.942202E-5,
1022.226,7.657892E-5,
1020.298,9.385376E-5,
1018.369,8.639679E-5,
1016.440,5.952342E-5,
1014.511,6.163443E-5,
1012.583,8.380124E-5,
1010.654,0.0001038434,
1008.725,8.204365E-5,
1006.796,3.397522E-5,
1004.868,4.836577E-5,
1002.939,6.335288E-5,
1001.010,7.01481E-5,
999.082,4.572696E-5,
997.153,4.036336E-5,
995.224,4.30634E-5,
993.295,4.68114E-5,
991.367,6.278566E-5,
989.438,5.205899E-5,
987.509,4.693217E-5,
985.580,3.677354E-5,
983.652,4.005793E-5,
981.723,3.771217E-5,
979.794,6.594938E-5,
977.866,6.994563E-5,
975.937,6.008408E-5,
974.008,7.243857E-5,
972.079,8.783E-5,
970.151,7.681428E-5,
968.222,5.352729E-5,
966.293,6.368403E-5,
964.364,5.332623E-5,
962.436,3.699789E-5,
960.507,4.503303E-5,
958.578,6.126901E-5,
956.650,6.788698E-5,
954.721,8.957567E-5,
952.792,9.695076E-5,
950.863,6.821493E-5,
948.935,5.419356E-5,
947.006,3.551456E-5,
945.077,3.667306E-5,
943.148,7.271973E-5,
941.220,8.205154E-5,
939.291,9.388461E-5,
937.362,9.073566E-5,
935.434,7.121055E-5,
933.505,5.473177E-5,
931.576,5.93216E-5,
929.647,8.918344E-5,
927.719,8.547612E-5,
925.790,5.064199E-5,
923.861,7.317282E-5,
921.932,9.122818E-5,
920.004,6.517074E-5,
918.075,3.579498E-5,
916.146,4.801796E-5,
914.217,5.531142E-5,
912.289,5.225759E-5,
910.360,6.61261E-5,
908.431,0.0001021298,
906.503,0.0001052267,
904.574,7.564322E-5,
902.645,8.430051E-5,
900.716,6.834776E-5,
898.788,5.58436E-5,
896.859,6.997553E-5,
894.930,0.0001011383,
893.001,9.049875E-5,
891.073,0.0001002378,
889.144,0.0001107923,
887.215,0.000114748,
885.287,0.000106107,
883.358,0.0001008586,
881.429,7.266908E-5,
879.500,4.897575E-5,
877.572,3.197025E-5,
875.643,3.765796E-5,
873.714,8.742509E-5,
871.785,0.0001281249,
869.857,0.0001233568,
867.928,5.916372E-5,
865.999,6.426241E-5,
864.071,0.0001460129,
862.142,0.0001736417,
860.213,0.0001599772,
858.284,0.0001227107,
856.356,0.0001186858,
854.427,0.0001139668,
852.498,7.117081E-5,
850.569,3.698947E-5,
848.641,6.965319E-5,
846.712,6.717061E-5,
844.783,9.471625E-5,
842.855,0.0001390549,
840.926,0.0001166641,
838.997,4.494219E-5,
837.068,0.0001293415,
835.140,0.0001543806,
833.211,0.0001638653,
831.282,0.0001613431,
829.353,0.0001382321,
827.425,0.0001477873,
825.496,0.0001088439,
823.567,7.409672E-5,
821.639,0.0001099141,
819.710,0.0001221219,
817.781,9.297237E-5,
815.852,9.059268E-5,
813.924,8.44521E-5,
811.995,8.656816E-5,
810.066,0.0001242559,
808.137,0.0001441962,
806.209,0.0001362474,
804.280,0.0001105356,
802.351,6.961746E-5,
800.422,3.980944E-5,
798.494,9.677361E-5,
796.565,0.0001104886,
794.636,7.971982E-5,
792.708,9.6994E-5,
790.779,0.0001548601,
788.850,0.0002346561,
786.921,0.0001643331,
784.993,0.0001153174,
783.064,0.000115584,
781.135,0.0001201965,
779.206,0.0001457933,
777.278,0.0001592628,
775.349,0.0001556749,
773.420,0.0001195837,
771.492,6.15792E-5,
769.563,3.725719E-5,
767.634,6.712314E-5,
765.705,6.766619E-5,
763.777,0.0001122283,
761.848,0.0001471639,
759.919,0.0001530277,
757.990,0.000106933,
756.062,3.553828E-5,
754.133,3.029185E-5,
752.204,0.0001038162,
750.276,0.0001416697,
748.347,0.0001280444,
746.418,0.0001072301,
744.489,7.77852E-5,
742.561,0.0001520639,
740.632,0.0002030269,
738.703,0.0001604666,
736.774,7.28345E-5,
734.846,3.952769E-5,
732.917,5.562991E-5,
730.988,7.013896E-5,
729.060,0.0001006785,
727.131,0.0002138828,
725.202,0.0002535862,
723.273,0.0001899158,
721.345,0.0001698107,
719.416,0.0002423501,
717.487,0.0002452041,
715.558,0.0002145394,
713.630,0.0002247247,
711.701,0.0002261347,
709.772,0.000159482,
707.843,0.0001155128,
705.915,9.799159E-5,
703.986,3.429244E-5,
702.057,6.985332E-5,
700.129,0.0001507702,
698.200,0.0001673316,
696.271,0.0001927233,
694.342,0.0001791242,
692.414,0.000105703,
690.485,0.0001715158,
688.556,0.0002160642,
686.627,0.0001306386,
684.699,0.0001147584,
682.770,0.0001760295,
680.841,0.0001605171,
678.913,0.0001077896,
676.984,5.881507E-5,
675.055,0.0001017723,
673.126,0.0002036954,
671.198,0.0002763185,
669.269,0.0002906533,
667.340,0.0002020213,
665.411,6.169516E-5,
663.483,7.330832E-5,
661.554,0.0001816719,
659.625,0.0003052007,
657.697,0.0002791972,
655.768,0.0001487993,
653.839,0.0001508695,
651.910,0.0001936564,
649.982,0.0001158057,
648.053,9.956201E-5,
646.124,0.0001199844,
644.195,0.0001540029,
642.267,0.0001970666,
640.338,0.0002827878,
638.409,0.0002823457,
636.481,0.0001911628,
634.552,0.000161388,
632.623,0.0002201348,
630.694,0.0001503284,
628.766,0.0001980167,
626.837,0.0002322998,
624.908,0.0001346452,
622.979,0.0001299769,
621.051,0.0002160977,
619.122,0.0002160778,
617.193,0.0001736528,
615.265,0.0002041659,
613.336,0.0002416816,
611.407,0.0003013553,
609.478,0.0003470857,
607.550,0.0002990058,
605.621,0.000179292,
603.692,0.0001463315,
601.763,0.0002411944,
599.835,0.0002453143,
597.906,0.0002048661,
595.977,0.000238388,
594.048,0.0002862321,
592.120,0.0002718003,
590.191,0.0002014689,
588.262,0.0001733967,
586.334,0.0003309952,
584.405,0.0004501283,
582.476,0.0003432843,
580.547,0.0003432304,
578.619,0.0003310171,
576.690,0.0002599284,
574.761,0.0002881151,
572.832,0.0003781841,
570.904,0.0004668334,
568.975,0.000513011,
567.046,0.0004176453,
565.118,0.0002942912,
563.189,0.0001928816,
561.260,0.0003337917,
559.331,0.000308979,
557.403,0.0002406746,
555.474,0.0002592209,
553.545,0.0003299031,
551.616,0.0002497784,
549.688,0.0003186348,
547.759,0.000460723,
545.830,0.0003854583,
543.902,0.0002875548,
541.973,0.0002198587,
540.044,0.0002117526,
538.115,0.0002572812,
536.187,0.0003406997,
534.258,0.0002628115,
532.329,0.0001381168,
530.400,0.0002199397,
528.472,0.000248048,
526.543,0.0002265042,
524.614,0.0002367812,
522.686,0.0003874168,
520.757,0.0003022139,
518.828,0.000425907,
516.899,0.000530111,
514.971,0.0004661762,
513.042,0.0003557979,
511.113,0.0003366834,
509.184,0.0005530327,
507.256,0.0006097044,
505.327,0.000566509,
503.398,0.0006445576,
501.470,0.0007287189,
499.541,0.0006109765,
497.612,0.0005010127,
495.683,0.000568889,
493.755,0.0004534073,
491.826,0.0004386159,
489.897,0.0005151408,
487.968,0.0004786506,
486.040,0.0003487341,
484.111,0.0006132816,
482.182,0.0010357,
480.253,0.000997579,
478.325,0.0007836284,
476.396,0.0007104206,
474.467,0.0006350437,
472.539,0.0007849949,
470.610,0.0008397068,
468.681,0.0006434625,
466.752,0.0004895841,
464.824,0.0007112106,
462.895,0.0008800799,
460.966,0.001154317,
459.037,0.001155196,
457.109,0.001133249,
455.180,0.001261218,
453.251,0.0009260571,
451.323,0.0002967123,
449.394,0.0006615586,
447.465,0.0009877632,
445.536,0.001144293,
443.608,0.0007479534,
441.679,0.0003998858,
439.750,0.0009812613,
437.821,0.000880839,
435.893,0.0004534528,
433.964,0.0004534258,
432.035,0.000386204,
430.107,0.0008457658,
428.178,0.0007838103,
426.249,0.001062361,
424.320,0.001374765,
422.392,0.001711496,
420.463,0.001107736,
418.534,0.001807425,
416.605,0.003080067,
414.677,0.002931189,
412.748,0.002132939,
410.819,0.002338002,
408.891,0.002738293,
406.962,0.003942454,
405.033,0.004361605,
403.104,0.003067335,
401.176,0.002666816,
399.247,0.004516916,
397.318,0.004369226,
395.389,0.0024056,
393.461,0.002187816,
391.532,0.001941879,
389.603,0.003044012,
387.675,0.003858492,
385.746,0.006312163,
383.817,0.006610853,
381.888,0.004688827,
379.960,0.003746858,
378.031,0.002687533,
376.102,0.00467721,
374.173,0.007403651,
