;1;
Wavenumbers [1/cm];Transmittance;
7496,969;0,08932315;
7495,040;0,09008377;
7493,112;0,09068744;
7491,183;0,09149738;
7489,254;0,09267897;
7487,326;0,09428252;
7485,397;0,0958578;
7483,468;0,09683798;
7481,539;0,09740906;
7479,611;0,09789594;
7477,682;0,09821536;
7475,753;0,09851337;
7473,824;0,09916902;
7471,896;0,1001924;
7469,967;0,1011985;
7468,038;0,1016633;
7466,110;0,1017996;
7464,181;0,1025996;
7462,252;0,1040286;
7460,323;0,1054308;
7458,395;0,1068122;
7456,466;0,1081053;
7454,537;0,1091542;
7452,608;0,1100357;
7450,680;0,1109809;
7448,751;0,1123881;
7446,822;0,1141172;
7444,893;0,1155299;
7442,965;0,1164295;
7441,036;0,117289;
7439,107;0,1185999;
7437,179;0,1202654;
7435,250;0,1218928;
7433,321;0,1230428;
7431,392;0,1236347;
7429,464;0,1244609;
7427,535;0,1260048;
7425,606;0,1277021;
7423,677;0,1293903;
7421,749;0,1313519;
7419,820;0,1329691;
7417,891;0,1338126;
7415,963;0,134867;
7414,034;0,1366587;
7412,105;0,1383853;
7410,176;0,1397597;
7408,248;0,1412702;
7406,319;0,1428712;
7404,390;0,1441702;
7402,461;0,145325;
7400,533;0,1470095;
7398,604;0,1494315;
7396,675;0,1518034;
7394,747;0,1533663;
7392,818;0,1543977;
7390,889;0,1557477;
7388,960;0,1576017;
7387,032;0,1593115;
7385,103;0,1605468;
7383,174;0,1619039;
7381,245;0,1637517;
7379,317;0,1656236;
7377,388;0,1674421;
7375,459;0,1692971;
7373,531;0,1708864;
7371,602;0,1722985;
7369,673;0,1737648;
7367,744;0,1752876;
7365,816;0,176705;
7363,887;0,1779111;
7361,958;0,1792537;
7360,029;0,1809457;
7358,101;0,1827453;
7356,172;0,1843495;
7354,243;0,1857047;
7352,314;0,1871995;
7350,386;0,1890483;
7348,457;0,1908044;
7346,528;0,1920592;
7344,600;0,1928559;
7342,671;0,1936685;
7340,742;0,1949133;
7338,813;0,1960905;
7336,885;0,1968262;
7334,956;0,1977106;
7333,027;0,1989733;
7331,098;0,2001031;
7329,170;0,2009578;
7327,241;0,2020894;
7325,312;0,2035987;
7323,384;0,2048603;
7321,455;0,2055506;
7319,526;0,205863;
7317,597;0,2061998;
7315,669;0,2068441;
7313,740;0,2076103;
7311,811;0,2080704;
7309,882;0,2082883;
7307,954;0,2086907;
7306,025;0,2089518;
7304,096;0,2085765;
7302,168;0,2081926;
7300,239;0,2083613;
7298,310;0,2085955;
7296,381;0,2085727;
7294,453;0,208337;
7292,524;0,207872;
7290,595;0,2075904;
7288,666;0,2077132;
7286,738;0,2075965;
7284,809;0,206922;
7282,880;0,2063011;
7280,952;0,2060387;
7279,023;0,2056177;
7277,094;0,2047854;
7275,165;0,2039528;
7273,237;0,2032028;
7271,308;0,2021334;
7269,379;0,2009649;
7267,450;0,2002251;
7265,522;0,1997083;
7263,593;0,1989683;
7261,664;0,1979583;
7259,736;0,1969002;
7257,807;0,1956649;
7255,878;0,1939361;
7253,949;0,1921838;
7252,021;0,1909368;
7250,092;0,1899107;
7248,163;0,188758;
7246,234;0,1875822;
7244,306;0,186466;
7242,377;0,1850614;
7240,448;0,1832424;
7238,519;0,1813927;
7236,591;0,1797297;
7234,662;0,1783914;
7232,733;0,1772808;
7230,805;0,1756695;
7228,876;0,1734532;
7226,947;0,1715093;
7225,018;0,1700879;
7223,090;0,1687584;
7221,161;0,1673792;
7219,232;0,165867;
7217,303;0,1641377;
7215,375;0,1623235;
7213,446;0,1604543;
7211,517;0,1586017;
7209,589;0,1570513;
7207,660;0,1558737;
7205,731;0,154666;
7203,802;0,1530281;
7201,874;0,1511533;
7199,945;0,1492665;
7198,016;0,1472948;
7196,087;0,1454644;
7194,159;0,1439807;
7192,230;0,142666;
7190,301;0,1411947;
7188,373;0,1392632;
7186,444;0,1370762;
7184,515;0,1352323;
7182,586;0,1338758;
7180,658;0,1326312;
7178,729;0,131222;
7176,800;0,1295846;
7174,871;0,1279468;
7172,943;0,1266773;
7171,014;0,1254351;
7169,085;0,1238552;
7167,157;0,1223356;
7165,228;0,1210556;
7163,299;0,1197342;
7161,370;0,1181815;
7159,442;0,1165769;
7157,513;0,1152062;
7155,584;0,1139947;
7153,655;0,1127968;
7151,727;0,1116277;
7149,798;0,1105759;
7147,869;0,1095376;
7145,941;0,1081851;
7144,012;0,1065997;
7142,083;0,1052543;
7140,154;0,1043185;
7138,226;0,1034435;
7136,297;0,102372;
7134,368;0,1012257;
7132,439;0,09992936;
7130,511;0,09849261;
7128,582;0,09741457;
7126,653;0,09672752;
7124,724;0,09588576;
7122,796;0,0947771;
7120,867;0,09361839;
7118,938;0,09257989;
7117,010;0,09171522;
7115,081;0,09076426;
7113,152;0,08967654;
7111,223;0,08877875;
7109,295;0,0880534;
7107,366;0,08724748;
7105,437;0,08645441;
7103,508;0,08567113;
7101,580;0,08472872;
7099,651;0,08404888;
7097,722;0,08375826;
7095,794;0,08309213;
7093,865;0,08178707;
7091,936;0,08042157;
7090,007;0,07959639;
7088,079;0,07925263;
7086,150;0,07881767;
7084,221;0,07817497;
7082,292;0,0777171;
7080,364;0,07744297;
7078,435;0,07675613;
7076,506;0,07553168;
7074,578;0,07443456;
7072,649;0,07370872;
7070,720;0,07313164;
7068,791;0,07264016;
7066,863;0,07214704;
7064,934;0,07172655;
7063,005;0,07153582;
7061,076;0,07132537;
7059,148;0,07087465;
7057,219;0,07038263;
7055,290;0,06999358;
7053,362;0,06963728;
7051,433;0,06941351;
7049,504;0,06927219;
7047,575;0,06888673;
7045,647;0,06848305;
7043,718;0,06830652;
7041,789;0,0679515;
7039,860;0,06738913;
7037,932;0,06682372;
7036,003;0,06613609;
7034,074;0,06562822;
7032,146;0,0656093;
7030,217;0,06565428;
7028,288;0,06534218;
7026,359;0,0647479;
7024,431;0,06429821;
7022,502;0,06428678;
7020,573;0,06436781;
7018,644;0,06424896;
7016,716;0,06404081;
7014,787;0,0635339;
7012,858;0,06266204;
7010,929;0,0621188;
7009,001;0,06227747;
7007,072;0,06250378;
7005,143;0,06237379;
7003,215;0,06222511;
7001,286;0,06213405;
6999,357;0,06187413;
6997,428;0,06157747;
6995,500;0,06145973;
6993,571;0,06140738;
6991,642;0,06123162;
6989,713;0,06101041;
6987,785;0,06089685;
6985,856;0,06094724;
6983,927;0,0611482;
6981,999;0,06132281;
6980,070;0,06126062;
6978,141;0,0610205;
6976,212;0,06089606;
6974,284;0,06097084;
6972,355;0,06102635;
6970,426;0,0610317;
6968,497;0,06119389;
6966,569;0,06147844;
6964,640;0,06148579;
6962,711;0,06121753;
6960,783;0,06114343;
6958,854;0,06126006;
6956,925;0,06137222;
6954,996;0,06144031;
6953,068;0,06132831;
6951,139;0,06106246;
6949,210;0,06082409;
6947,281;0,06079264;
6945,353;0,06097986;
6943,424;0,06129003;
6941,495;0,06168599;
6939,567;0,06193854;
6937,638;0,06198071;
6935,709;0,06208522;
6933,780;0,06237179;
6931,852;0,06274859;
6929,923;0,06294726;
6927,994;0,06285997;
6926,065;0,06286675;
6924,137;0,06328338;
6922,208;0,06388567;
6920,279;0,06420503;
6918,350;0,06402915;
6916,422;0,06378214;
6914,493;0,06402285;
6912,564;0,06463547;
6910,636;0,06518725;
6908,707;0,0655729;
6906,778;0,06589849;
6904,849;0,06615271;
6902,921;0,06632733;
6900,992;0,06666131;
6899,063;0,06725547;
6897,134;0,06786209;
6895,206;0,06832005;
6893,277;0,06868336;
6891,348;0,06900936;
6889,420;0,06934386;
6887,491;0,06964194;
6885,562;0,06981062;
6883,633;0,07000435;
6881,705;0,07052098;
6879,776;0,07129004;
6877,847;0,07197823;
6875,918;0,07253826;
6873,990;0,07303379;
6872,061;0,07344019;
6870,132;0,07385529;
6868,204;0,07441804;
6866,275;0,07517885;
6864,346;0,07598836;
6862,417;0,07676201;
6860,489;0,07755286;
6858,560;0,07812081;
6856,631;0,07844681;
6854,702;0,07903775;
6852,774;0,08004238;
6850,845;0,08102027;
6848,916;0,08166159;
6846,988;0,08211534;
6845,059;0,08266586;
6843,130;0,08341936;
6841,201;0,08428877;
6839,273;0,0852077;
6837,344;0,08623475;
6835,415;0,08737073;
6833,486;0,08846769;
6831,558;0,08941378;
6829,629;0,09034707;
6827,700;0,09126201;
6825,772;0,0919451;
6823,843;0,09263403;
6821,914;0,09357493;
6819,985;0,09451111;
6818,057;0,09534734;
6816,128;0,09634432;
6814,199;0,09765573;
6812,270;0,09907445;
6810,342;0,1002772;
6808,413;0,1013404;
6806,484;0,1026044;
6804,555;0,1040036;
6802,627;0,1051439;
6800,698;0,1060586;
6798,769;0,1071865;
6796,841;0,1087094;
6794,912;0,1103718;
6792,983;0,1118211;
6791,054;0,1131071;
6789,126;0,114469;
6787,197;0,1158015;
6785,268;0,1170132;
6783,339;0,1182447;
6781,411;0,1195897;
6779,482;0,1211018;
6777,553;0,1227451;
6775,625;0,1242791;
6773,696;0,1255791;
6771,767;0,1269319;
6769,838;0,1284433;
6767,910;0,1299353;
6765,981;0,1315484;
6764,052;0,1332393;
6762,123;0,134732;
6760,195;0,1362312;
6758,266;0,1378643;
6756,337;0,139392;
6754,409;0,140929;
6752,480;0,1426883;
6750,551;0,1443956;
6748,622;0,1458314;
6746,694;0,1473725;
6744,765;0,1492683;
6742,836;0,1510418;
6740,907;0,1524858;
6738,979;0,1540566;
6737,050;0,1558546;
6735,121;0,1575373;
6733,193;0,1589847;
6731,264;0,1604517;
6729,335;0,1620815;
6727,406;0,1635954;
6725,478;0,1649297;
6723,549;0,1664293;
6721,620;0,1681042;
6719,691;0,1695973;
6717,763;0,1709125;
6715,834;0,1722617;
6713,905;0,1735122;
6711,977;0,1746367;
6710,048;0,1758814;
6708,119;0,1772576;
6706,190;0,1785972;
6704,262;0,1797122;
6702,333;0,1804994;
6700,404;0,1811782;
6698,475;0,1820355;
6696,547;0,1831012;
6694,618;0,1842113;
6692,689;0,1851341;
6690,760;0,1858775;
6688,832;0,1866007;
6686,903;0,1872013;
6684,974;0,1876901;
6683,046;0,1882426;
6681,117;0,1887581;
6679,188;0,1891364;
6677,259;0,1893104;
6675,331;0,1892883;
6673,402;0,1894257;
6671,473;0,189717;
6669,544;0,1897503;
6667,616;0,1895502;
6665,687;0,1893275;
6663,758;0,1890836;
6661,830;0,1887987;
6659,901;0,1885044;
6657,972;0,1881267;
6656,043;0,1874734;
6654,115;0,186685;
6652,186;0,1860801;
6650,257;0,1854934;
6648,328;0,1846157;
6646,400;0,1836476;
6644,471;0,1828491;
6642,542;0,1819859;
6640,614;0,1809289;
6638,685;0,1799047;
6636,756;0,1789112;
6634,827;0,1777738;
6632,899;0,1764832;
6630,970;0,1751048;
6629,041;0,1736276;
6627,112;0,1720673;
6625,184;0,1704886;
6623,255;0,1689419;
6621,326;0,1675625;
6619,398;0,1663141;
6617,469;0,1649205;
6615,540;0,1632783;
6613,611;0,1615218;
6611,683;0,1598432;
6609,754;0,1582399;
6607,825;0,1565566;
6605,896;0,1548222;
6603,968;0,1530748;
6602,039;0,151245;
6600,110;0,1494495;
6598,182;0,1478295;
6596,253;0,1462569;
6594,324;0,1445212;
6592,395;0,1426364;
6590,467;0,1408657;
6588,538;0,1392556;
6586,609;0,1375131;
6584,680;0,1356435;
6582,752;0,1338778;
6580,823;0,1321579;
6578,894;0,130431;
6576,965;0,1287382;
6575,037;0,1269992;
6573,108;0,1252908;
6571,179;0,1237648;
6569,251;0,1223572;
6567,322;0,1209161;
6565,393;0,1192838;
6563,464;0,1174965;
6561,536;0,115822;
6559,607;0,1143828;
6557,678;0,1130396;
6555,749;0,1116025;
6553,821;0,1101354;
6551,892;0,1087755;
6549,963;0,1073541;
6548,035;0,1058353;
6546,106;0,1044896;
6544,177;0,10333;
6542,248;0,1021319;
6540,320;0,1008201;
6538,391;0,0995087;
6536,462;0,09822202;
6534,533;0,09681457;
6532,605;0,09538733;
6530,676;0,09426323;
6528,747;0,09343152;
6526,819;0,09250531;
6524,890;0,09126739;
6522,961;0,08992825;
6521,032;0,08879845;
6519,104;0,08793737;
6517,175;0,08707168;
6515,246;0,08595548;
6513,317;0,08466901;
6511,389;0,08335616;
6509,460;0,08221933;
6507,531;0,08149614;
6505,603;0,08098843;
6503,674;0,08031299;
6501,745;0,07952069;
6499,816;0,0787814;
6497,888;0,07804394;
6495,959;0,0773175;
6494,030;0,07659303;
6492,101;0,07579936;
6490,173;0,07500575;
6488,244;0,07424982;
6486,315;0,0735137;
6484,386;0,07281438;
6482,458;0,07216378;
6480,529;0,07158343;
6478,600;0,07103058;
6476,672;0,0704185;
6474,743;0,06972899;
6472,814;0,06907985;
6470,885;0,06860917;
6468,957;0,06820659;
6467,028;0,06765036;
6465,099;0,06699114;
6463,170;0,066402;
6461,242;0,06588168;
6459,313;0,06547621;
6457,384;0,0652052;
6455,456;0,06474939;
6453,527;0,06394638;
6451,598;0,06314472;
6449,669;0,06265418;
6447,741;0,062357;
6445,812;0,06203639;
6443,883;0,06166313;
6441,954;0,06124849;
6440,026;0,06086523;
6438,097;0,06060855;
6436,168;0,06038899;
6434,240;0,06009269;
6432,311;0,05970132;
6430,382;0,05930601;
6428,453;0,05901928;
6426,525;0,05879802;
6424,596;0,05854594;
6422,667;0,05820836;
6420,738;0,05784913;
6418,810;0,05759442;
6416,881;0,05748817;
6414,952;0,05745491;
6413,024;0,05730249;
6411,095;0,0570513;
6409,166;0,05679051;
6407,237;0,05646392;
6405,309;0,05626449;
6403,380;0,05621503;
6401,451;0,05596594;
6399,522;0,05556266;
6397,594;0,05532208;
6395,665;0,05529138;
6393,736;0,05536215;
6391,808;0,05538703;
6389,879;0,05524149;
6387,950;0,0550272;
6386,021;0,05496122;
6384,093;0,05500196;
6382,164;0,05494259;
6380,235;0,05485152;
6378,306;0,0548639;
6376,378;0,0548605;
6374,449;0,05481878;
6372,520;0,05483778;
6370,591;0,05486179;
6368,663;0,05477351;
6366,734;0,05459178;
6364,805;0,05452777;
6362,877;0,05461902;
6360,948;0,0546555;
6359,019;0,05468288;
6357,090;0,05487313;
6355,162;0,0550126;
6353,233;0,05482393;
6351,304;0,05452716;
6349,375;0,05446335;
6347,447;0,0545994;
6345,518;0,05475746;
6343,589;0,05485399;
6341,661;0,05495981;
6339,732;0,05517408;
6337,803;0,05542363;
6335,874;0,05556152;
6333,946;0,05559657;
6332,017;0,05575234;
6330,088;0,05600313;
6328,159;0,05598882;
6326,231;0,05578917;
6324,302;0,055842;
6322,373;0,05616123;
6320,445;0,05650813;
6318,516;0,05685246;
6316,587;0,05718494;
6314,658;0,0573754;
6312,730;0,05749403;
6310,801;0,05782793;
6308,872;0,05829225;
6306,943;0,05855094;
6305,015;0,0587013;
6303,086;0,05893936;
6301,157;0,05914107;
6299,229;0,05931663;
6297,300;0,05969343;
6295,371;0,0602532;
6293,442;0,06076105;
6291,514;0,06110709;
6289,585;0,06132269;
6287,656;0,06150351;
6285,727;0,06173632;
6283,799;0,06201462;
6281,870;0,0623522;
6279,941;0,06282589;
6278,013;0,06337924;
6276,084;0,06390239;
6274,155;0,06440488;
6272,226;0,06482454;
6270,298;0,06514663;
6268,369;0,06563734;
6266,440;0,06637481;
6264,511;0,0671092;
6262,583;0,06769135;
6260,654;0,06812995;
6258,725;0,06857058;
6256,796;0,06922661;
6254,868;0,07006401;
6252,939;0,07082748;
6251,010;0,07141437;
6249,082;0,07192056;
6247,153;0,07240617;
6245,224;0,07293615;
6243,295;0,07364098;
6241,367;0,07450659;
6239,438;0,07535671;
6237,509;0,07613692;
6235,580;0,07691169;
6233,652;0,07767092;
6231,723;0,07846291;
6229,794;0,07934776;
6227,866;0,0802371;
6225,937;0,08110762;
6224,008;0,08201066;
6222,079;0,08293394;
6220,151;0,08388729;
6218,222;0,08487187;
6216,293;0,0858365;
6214,364;0,08679423;
6212,436;0,08780608;
6210,507;0,08888549;
6208,578;0,09003855;
6206,650;0,09119959;
6204,721;0,09226906;
6202,792;0,09332874;
6200,863;0,09449622;
6198,935;0,0957529;
6197,006;0,09700159;
6195,077;0,098185;
6193,148;0,09944624;
6191,220;0,1008509;
6189,291;0,1021735;
6187,362;0,1033813;
6185,434;0,1047289;
6183,505;0,106258;
6181,576;0,1077988;
6179,647;0,1092918;
6177,719;0,1107612;
6175,790;0,1122108;
6173,861;0,1135855;
6171,932;0,1149111;
6170,004;0,1164197;
6168,075;0,1181174;
6166,146;0,1197992;
6164,218;0,1215586;
6162,289;0,1233942;
6160,360;0,1250212;
6158,431;0,1265206;
6156,503;0,1282285;
6154,574;0,1301141;
6152,645;0,1318662;
6150,716;0,1333762;
6148,788;0,1349458;
6146,859;0,1368469;
6144,930;0,1388115;
6143,001;0,1405962;
6141,073;0,142425;
6139,144;0,1443294;
6137,215;0,1461289;
6135,287;0,1478657;
6133,358;0,1496279;
6131,429;0,1514318;
6129,500;0,1532132;
6127,572;0,1549348;
6125,643;0,1567149;
6123,714;0,158614;
6121,785;0,1605324;
6119,857;0,1623102;
6117,928;0,1639273;
6115,999;0,1656209;
6114,071;0,167494;
6112,142;0,1693226;
6110,213;0,1709706;
6108,284;0,1725094;
6106,356;0,1740819;
6104,427;0,1758399;
6102,498;0,1776296;
6100,569;0,1791828;
6098,641;0,1806269;
6096,712;0,1820704;
6094,783;0,1833697;
6092,855;0,1845764;
6090,926;0,1858339;
6088,997;0,1871433;
6087,068;0,1884131;
6085,140;0,1895023;
6083,211;0,1904813;
6081,282;0,1915557;
6079,353;0,1926392;
6077,425;0,1935669;
6075,496;0,1943836;
6073,567;0,1951401;
6071,639;0,1958073;
6069,710;0,1963148;
6067,781;0,1966286;
6065,852;0,1968677;
6063,924;0,1971791;
6061,995;0,1975085;
6060,066;0,1976395;
6058,137;0,1975344;
6056,209;0,1974275;
6054,280;0,1973902;
6052,351;0,1971925;
6050,423;0,1967333;
6048,494;0,1961742;
6046,565;0,1956282;
6044,636;0,1950257;
6042,708;0,1943061;
6040,779;0,193539;
6038,850;0,1927129;
6036,921;0,1917371;
6034,993;0,1906607;
6033,064;0,1895225;
6031,135;0,1883071;
6029,206;0,1870121;
6027,278;0,1855536;
6025,349;0,1839904;
6023,420;0,182532;
6021,492;0,1811211;
6019,563;0,1795155;
6017,634;0,1777085;
6015,705;0,1758861;
6013,777;0,1741194;
6011,848;0,1723073;
6009,919;0,1703686;
6007,990;0,1683943;
6006,062;0,1665254;
6004,133;0,1646878;
6002,204;0,1626693;
6000,276;0,160519;
5998,347;0,1584991;
5996,418;0,1565882;
5994,489;0,1545878;
5992,561;0,1525283;
5990,632;0,1504805;
5988,703;0,1484199;
5986,774;0,1463854;
5984,846;0,1443818;
5982,917;0,1423988;
5980,988;0,1404635;
5979,060;0,1384825;
5977,131;0,1364222;
5975,202;0,134386;
5973,273;0,1324037;
5971,345;0,1304365;
5969,416;0,1284057;
5967,487;0,1263765;
5965,558;0,1245147;
5963,630;0,1227161;
5961,701;0,120834;
5959,772;0,1189563;
5957,844;0,1171385;
5955,915;0,1153422;
5953,986;0,1135589;
5952,057;0,111758;
5950,129;0,1099518;
5948,200;0,1082474;
5946,271;0,106696;
5944,342;0,1051939;
5942,414;0,1036054;
5940,485;0,1019637;
5938,556;0,1003656;
5936,627;0,09889589;
5934,699;0,09759627;
5932,770;0,09625993;
5930,841;0,09474098;
5928,913;0,09319316;
5926,984;0,0917339;
5925,055;0,09038578;
5923,126;0,08915219;
5921,198;0,08795756;
5919,269;0,08672881;
5917,340;0,08549506;
5915,411;0,08432653;
5913,483;0,08322043;
5911,554;0,08210234;
5909,625;0,08091862;
5907,697;0,07968508;
5905,768;0,07847415;
5903,839;0,07736929;
5901,910;0,07639217;
5899,982;0,07551661;
5898,053;0,07469226;
5896,124;0,07387375;
5894,195;0,07305142;
5892,267;0,07216984;
5890,338;0,07122408;
5888,409;0,07030921;
5886,481;0,06946494;
5884,552;0,06871034;
5882,623;0,06801154;
5880,694;0,06721444;
5878,766;0,06628086;
5876,837;0,06539974;
5874,908;0,06470121;
5872,979;0,06411023;
5871,051;0,06356909;
5869,122;0,06307618;
5867,193;0,0625215;
5865,265;0,06183307;
5863,336;0,06113169;
5861,407;0,06050712;
5859,478;0,05992327;
5857,550;0,0593361;
5855,621;0,05870827;
5853,692;0,05811252;
5851,763;0,05767942;
5849,835;0,05734868;
5847,906;0,05698413;
5845,977;0,05656375;
5844,049;0,05611406;
5842,120;0,05568546;
5840,191;0,05528056;
5838,262;0,05484024;
5836,334;0,05442778;
5834,405;0,05409965;
5832,476;0,05374515;
5830,547;0,05327513;
5828,619;0,05273616;
5826,690;0,05227801;
5824,761;0,05196933;
5822,832;0,05170362;
5820,904;0,05141198;
5818,975;0,05111327;
5817,046;0,05083282;
5815,118;0,0506112;
5813,189;0,05042965;
5811,260;0,050221;
5809,331;0,05000519;
5807,403;0,04977955;
5805,474;0,04948581;
5803,545;0,04920103;
5801,616;0,04897447;
5799,688;0,04871557;
5797,759;0,04843258;
5795,830;0,04820497;
5793,902;0,04803303;
5791,973;0,04789009;
5790,044;0,04777848;
5788,115;0,0476619;
5786,187;0,04746102;
5784,258;0,0472228;
5782,329;0,04708169;
5780,400;0,04701438;
5778,472;0,04685753;
5776,543;0,04657358;
5774,614;0,04635055;
5772,686;0,04633094;
5770,757;0,0463855;
5768,828;0,04633087;
5766,899;0,04618749;
5764,971;0,0460552;
5763,042;0,04592641;
5761,113;0,04578107;
5759,184;0,04569073;
5757,256;0,04570263;
5755,327;0,04575247;
5753,398;0,04577435;
5751,470;0,04575763;
5749,541;0,04570427;
5747,612;0,04564864;
5745,683;0,04562329;
5743,755;0,04561743;
5741,826;0,04560503;
5739,897;0,04558661;
5737,968;0,04559678;
5736,040;0,0456628;
5734,111;0,04577511;
5732,182;0,0458477;
5730,254;0,04584889;
5728,325;0,04585085;
5726,396;0,04583264;
5724,467;0,04581235;
5722,539;0,04589032;
5720,610;0,04602193;
5718,681;0,04611798;
5716,752;0,04617482;
5714,824;0,04625364;
5712,895;0,04645886;
5710,966;0,04681407;
5709,037;0,04713621;
5707,109;0,04722901;
5705,180;0,04717807;
5703,251;0,04724836;
5701,323;0,04753999;
5699,394;0,04787545;
5697,465;0,04812372;
5695,536;0,04836349;
5693,608;0,04858627;
5691,679;0,048721;
5689,750;0,04887227;
5687,821;0,04914878;
5685,893;0,04947175;
5683,964;0,04973437;
5682,035;0,04992222;
5680,107;0,05009281;
5678,178;0,05036263;
5676,249;0,05072171;
5674,320;0,05101171;
5672,392;0,05121502;
5670,463;0,05143184;
5668,534;0,05172661;
5666,605;0,05216355;
5664,677;0,05265784;
5662,748;0,05300099;
5660,819;0,05324158;
5658,891;0,05362179;
5656,962;0,05419508;
5655,033;0,05477465;
5653,104;0,05521377;
5651,176;0,05560443;
5649,247;0,05604948;
5647,318;0,05649486;
5645,389;0,05693145;
5643,461;0,05744037;
5641,532;0,05803153;
5639,603;0,05861635;
5637,675;0,05910835;
5635,746;0,05954118;
5633,817;0,06003441;
5631,888;0,06060811;
5629,960;0,06121152;
5628,031;0,06183665;
5626,102;0,06248222;
5624,173;0,06317502;
5622,245;0,06392762;
5620,316;0,06465638;
5618,387;0,06531252;
5616,459;0,06599037;
5614,530;0,06675266;
5612,601;0,067491;
5610,672;0,06819718;
5608,744;0,06903017;
5606,815;0,06994685;
5604,886;0,0708385;
5602,957;0,07175013;
5601,029;0,0726577;
5599,100;0,07357501;
5597,171;0,07461043;
5595,242;0,07574613;
5593,314;0,07687842;
5591,385;0,07791699;
5589,456;0,07889687;
5587,528;0,07993905;
5585,599;0,08105415;
5583,670;0,08216952;
5581,741;0,08326745;
5579,813;0,08440072;
5577,884;0,08559184;
5575,955;0,08685183;
5574,026;0,08822165;
5572,098;0,08968403;
5570,169;0,09114227;
5568,240;0,0925454;
5566,312;0,09395368;
5564,383;0,09537883;
5562,454;0,09680903;
5560,525;0,09834022;
5558,597;0,1000442;
5556,668;0,1018032;
5554,739;0,1034109;
5552,810;0,1049495;
5550,882;0,1066361;
5548,953;0,108396;
5547,024;0,1101565;
5545,096;0,1119955;
5543,167;0,1138661;
5541,238;0,1157208;
5539,309;0,1176309;
5537,381;0,1195905;
5535,452;0,1215637;
5533,523;0,1235891;
5531,594;0,125634;
5529,666;0,1276585;
5527,737;0,129713;
5525,808;0,1318019;
5523,880;0,1338704;
5521,951;0,1359122;
5520,022;0,1380228;
5518,093;0,1402839;
5516,165;0,1425675;
5514,236;0,1447048;
5512,307;0,1467812;
5510,378;0,1489499;
5508,450;0,151186;
5506,521;0,1534376;
5504,592;0,1556988;
5502,663;0,1579356;
5500,735;0,1601401;
5498,806;0,1622903;
5496,877;0,1644123;
5494,949;0,1666607;
5493,020;0,1689392;
5491,091;0,1709843;
5489,162;0,1728731;
5487,234;0,1747696;
5485,305;0,1766603;
5483,376;0,1785098;
5481,447;0,1802891;
5479,519;0,1820907;
5477,590;0,1840609;
5475,661;0,1859672;
5473,733;0,1874456;
5471,804;0,1886879;
5469,875;0,1900329;
5467,946;0,1913824;
5466,018;0,1925889;
5464,089;0,1936812;
5462,160;0,1947001;
5460,231;0,1956309;
5458,303;0,1964476;
5456,374;0,1971758;
5454,445;0,1977703;
5452,517;0,1982112;
5450,588;0,1986264;
5448,659;0,1990713;
5446,730;0,1994136;
5444,802;0,1994876;
5442,873;0,1993449;
5440,944;0,1990271;
5439,015;0,1984765;
5437,087;0,1979337;
5435,158;0,1974208;
5433,229;0,1966859;
5431,301;0,1959581;
5429,372;0,1952425;
5427,443;0,1940524;
5425,514;0,1924592;
5423,586;0,1909042;
5421,657;0,1894773;
5419,728;0,1880534;
5417,799;0,1866519;
5415,871;0,1853858;
5413,942;0,1840188;
5412,013;0,1821823;
5410,085;0,1800071;
5408,156;0,1778458;
5406,227;0,1757724;
5404,298;0,173658;
5402,370;0,1714478;
5400,441;0,1692447;
5398,512;0,1671323;
5396,583;0,1650753;
5394,655;0,1628873;
5392,726;0,1603934;
5390,797;0,1578171;
5388,868;0,1555218;
5386,940;0,1533788;
5385,011;0,1510047;
5383,082;0,1483914;
5381,154;0,1458346;
5379,225;0,1435375;
5377,296;0,1413832;
5375,367;0,1390498;
5373,439;0,1364579;
5371,510;0,1338453;
5369,581;0,131401;
5367,652;0,1291286;
5365,724;0,1270003;
5363,795;0,1249152;
5361,866;0,1227247;
5359,938;0,1204831;
5358,009;0,1183288;
5356,080;0,1163501;
5354,151;0,1144986;
5352,223;0,1125224;
5350,294;0,1103701;
5348,365;0,1082961;
5346,436;0,1064398;
5344,508;0,1046313;
5342,579;0,1027401;
5340,650;0,1009217;
5338,722;0,09917177;
5336,793;0,09729327;
5334,864;0,09541164;
5332,935;0,09373232;
5331,007;0,09214349;
5329,078;0,09053057;
5327,149;0,08892079;
5325,220;0,08733486;
5323,292;0,08582599;
5321,363;0,08438178;
5319,434;0,08290795;
5317,506;0,08142705;
5315,577;0,08005048;
5313,648;0,07876454;
5311,719;0,07748482;
5309,791;0,07626387;
5307,862;0,07509633;
5305,933;0,07391011;
5304,004;0,07278077;
5302,076;0,07170424;
5300,147;0,07058311;
5298,218;0,06941445;
5296,290;0,06827729;
5294,361;0,06728094;
5292,432;0,06638457;
5290,503;0,06544185;
5288,575;0,06446078;
5286,646;0,06354275;
5284,717;0,06268679;
5282,788;0,06183367;
5280,860;0,06098817;
5278,931;0,06016755;
5277,002;0,05936649;
5275,073;0,05860417;
5273,145;0,05787015;
5271,216;0,05713763;
5269,287;0,05641904;
5267,359;0,05572129;
5265,430;0,05506363;
5263,501;0,0544532;
5261,572;0,05380609;
5259,644;0,05305535;
5257,715;0,05232165;
5255,786;0,05179111;
5253,857;0,05140103;
5251,929;0,05095828;
5250,000;0,05044809;
5248,071;0,04991208;
5246,143;0,0493222;
5244,214;0,04869361;
5242,285;0,04812361;
5240,356;0,04767031;
5238,428;0,04725832;
5236,499;0,0468131;
5234,570;0,04636919;
5232,641;0,0459439;
5230,713;0,04551715;
5228,784;0,04512409;
5226,855;0,04477974;
5224,927;0,04445098;
5222,998;0,04414181;
5221,069;0,04387532;
5219,140;0,0436238;
5217,212;0,04332402;
5215,283;0,04298456;
5213,354;0,04265087;
5211,425;0,04231412;
5209,497;0,04199652;
5207,568;0,04174031;
5205,639;0,04150135;
5203,711;0,04121985;
5201,782;0,04091511;
5199,853;0,04062572;
5197,924;0,04036936;
5195,996;0,04015479;
5194,067;0,03994152;
5192,138;0,03969721;
5190,209;0,03947586;
5188,281;0,03932495;
5186,352;0,03920003;
5184,423;0,03903492;
5182,495;0,0388162;
5180,566;0,03857886;
5178,637;0,0384008;
5176,708;0,03828667;
5174,780;0,03814064;
5172,851;0,0379806;
5170,922;0,03788959;
5168,993;0,03782741;
5167,065;0,03773173;
5165,136;0,03760041;
5163,207;0,03743447;
5161,278;0,03727955;
5159,350;0,03722589;
5157,421;0,03722654;
5155,492;0,03715819;
5153,564;0,03706602;
5151,635;0,03700833;
5149,706;0,03692929;
5147,777;0,03685421;
5145,849;0,03681682;
5143,920;0,03674532;
5141,991;0,03663985;
5140,062;0,03657771;
5138,134;0,03658184;
5136,205;0,0366299;
5134,276;0,03667391;
5132,348;0,03668711;
5130,419;0,03668379;
5128,490;0,03666796;
5126,561;0,03666874;
5124,633;0,03670904;
5122,704;0,03676061;
5120,775;0,03682648;
5118,846;0,03688646;
5116,918;0,0368985;
5114,989;0,03693076;
5113,060;0,03702733;
5111,132;0,03709752;
5109,203;0,03710911;
5107,274;0,03715841;
5105,345;0,03726273;
5103,417;0,03734182;
5101,488;0,03741823;
5099,559;0,03753611;
5097,630;0,03765798;
5095,702;0,03777685;
5093,773;0,03789907;
5091,844;0,03802277;
5089,916;0,03817246;
5087,987;0,03835863;
5086,058;0,0385463;
5084,129;0,03870591;
5082,201;0,03889346;
5080,272;0,03913189;
5078,343;0,03932756;
5076,414;0,0394353;
5074,486;0,03953933;
5072,557;0,0397457;
5070,628;0,04002056;
5068,700;0,04025281;
5066,771;0,04045423;
5064,842;0,04069497;
5062,913;0,04098616;
5060,985;0,04129444;
5059,056;0,0415847;
5057,127;0,04186663;
5055,198;0,04213973;
5053,270;0,04238983;
5051,341;0,04267855;
5049,412;0,0430445;
5047,483;0,04342683;
5045,555;0,04380072;
5043,626;0,04419367;
5041,697;0,04459256;
5039,769;0,04496899;
5037,840;0,04532246;
5035,911;0,04568651;
5033,982;0,04609892;
5032,054;0,04654903;
5030,125;0,04699455;
5028,196;0,04741118;
5026,267;0,04784589;
5024,339;0,04835299;
5022,410;0,04889563;
5020,481;0,04944615;
5018,553;0,0499861;
5016,624;0,05048262;
5014,695;0,05101144;
5012,766;0,05164102;
5010,838;0,05230384;
5008,909;0,05293339;
5006,980;0,05356814;
5005,051;0,05425362;
5003,123;0,05496164;
5001,194;0,05566164;
4999,265;0,0563396;
4997,337;0,05703576;
4995,408;0,05783636;
4993,479;0,0587103;
4991,550;0,05955697;
4989,622;0,06039204;
4987,693;0,0613003;
4985,764;0,06226629;
4983,835;0,06320366;
4981,907;0,06409604;
4979,978;0,06500764;
4978,049;0,06599464;
4976,121;0,06702551;
4974,192;0,06806722;
4972,263;0,06915586;
4970,334;0,07030173;
4968,406;0,07149874;
4966,477;0,07274859;
4964,548;0,0740207;
4962,619;0,0752923;
4960,691;0,0765624;
4958,762;0,07786102;
4956,833;0,07925656;
4954,904;0,08075312;
4952,976;0,08229588;
4951,047;0,08385259;
4949,118;0,08540616;
4947,190;0,08700769;
4945,261;0,08870554;
4943,332;0,09043084;
4941,403;0,0921502;
4939,475;0,09391537;
4937,546;0,0957308;
4935,617;0,09756735;
4933,688;0,09945195;
4931,760;0,1014329;
4929,831;0,1034742;
4927,902;0,1055204;
4925,974;0,1076044;
4924,045;0,1097445;
4922,116;0,1119053;
4920,187;0,1141121;
4918,259;0,1164169;
4916,330;0,1187958;
4914,401;0,1211909;
4912,472;0,1235999;
4910,544;0,1260602;
4908,615;0,1285585;
4906,686;0,1310384;
4904,758;0,1335143;
4902,829;0,1360708;
4900,900;0,1387182;
4898,971;0,1413868;
4897,043;0,1440458;
4895,114;0,1466751;
4893,185;0,1492625;
4891,256;0,1518823;
4889,328;0,1545772;
4887,399;0,157264;
4885,470;0,1599027;
4883,542;0,1625221;
4881,613;0,1650911;
4879,684;0,1676102;
4877,755;0,1701127;
4875,827;0,172571;
4873,898;0,1749988;
4871,969;0,1773921;
4870,040;0,1796912;
4868,112;0,1819309;
4866,183;0,1841216;
4864,254;0,1861737;
4862,326;0,1880914;
4860,397;0,1899415;
4858,468;0,1917136;
4856,539;0,1933848;
4854,611;0,1949403;
4852,682;0,196336;
4850,753;0,1975869;
4848,824;0,1987585;
4846,896;0,1998294;
4844,967;0,2007094;
4843,038;0,2013779;
4841,109;0,2018866;
4839,181;0,2022215;
4837,252;0,202355;
4835,323;0,202357;
4833,395;0,2022196;
4831,466;0,2018589;
4829,537;0,2013108;
4827,608;0,2006144;
4825,680;0,1997408;
4823,751;0,1987127;
4821,822;0,1975555;
4819,893;0,1962276;
4817,965;0,1947025;
4816,036;0,1930401;
4814,107;0,1912897;
4812,179;0,1894144;
4810,250;0,1873999;
4808,321;0,1852733;
4806,392;0,183023;
4804,464;0,1806419;
4802,535;0,1781465;
4800,606;0,1755467;
4798,677;0,1728814;
4796,749;0,1701968;
4794,820;0,1674718;
4792,891;0,1646722;
4790,963;0,1618157;
4789,034;0,1589213;
4787,105;0,1560176;
4785,176;0,1531367;
4783,248;0,1502438;
4781,319;0,1472925;
4779,390;0,1442928;
4777,461;0,1413133;
4775,533;0,1384088;
4773,604;0,1355403;
4771,675;0,132682;
4769,747;0,1298753;
4767,818;0,1271313;
4765,889;0,124426;
4763,960;0,1217284;
4762,032;0,1190281;
4760,103;0,116361;
4758,174;0,1137549;
4756,245;0,111213;
4754,317;0,1087406;
4752,388;0,1063245;
4750,459;0,1039529;
4748,531;0,1016393;
4746,602;0,09937622;
4744,673;0,09716319;
4742,744;0,09504762;
4740,816;0,09302051;
4738,887;0,09100664;
4736,958;0,08900163;
4735,029;0,08704224;
4733,101;0,08511227;
4731,172;0,08321565;
4729,243;0,08140152;
4727,314;0,07967161;
4725,386;0,0779874;
4723,457;0,07633277;
4721,528;0,07471164;
4719,600;0,07314662;
4717,671;0,07167181;
4715,742;0,07027987;
4713,813;0,06891451;
4711,885;0,06753036;
4709,956;0,06613479;
4708,027;0,06477607;
4706,098;0,06351899;
4704,170;0,06238456;
4702,241;0,06129097;
4700,312;0,06017311;
4698,384;0,0590691;
4696,455;0,05799224;
4694,526;0,05691351;
4692,597;0,05585379;
4690,669;0,05484769;
4688,740;0,05388807;
4686,811;0,05295373;
4684,882;0,05204676;
4682,954;0,05117904;
4681,025;0,05034245;
4679,096;0,0495293;
4677,168;0,04873405;
4675,239;0,04794421;
4673,310;0,04720575;
4671,381;0,04655442;
4669,453;0,04591922;
4667,524;0,04526982;
4665,595;0,04465273;
4663,666;0,04406616;
4661,738;0,04348443;
4659,809;0,04290035;
4657,880;0,04230312;
4655,952;0,04169411;
4654,023;0,04110427;
4652,094;0,04057231;
4650,165;0,04009273;
4648,237;0,03959958;
4646,308;0,03907639;
4644,379;0,03858791;
4642,450;0,03815605;
4640,522;0,03774798;
4638,593;0,03732412;
4636,664;0,0368706;
4634,736;0,0364319;
4632,807;0,03603465;
4630,878;0,03562909;
4628,949;0,03520157;
4627,021;0,03482604;
4625,092;0,03449279;
4623,163;0,03413537;
4621,234;0,03379439;
4619,306;0,03348273;
4617,377;0,0331521;
4615,448;0,03282312;
4613,519;0,03252922;
4611,591;0,03226752;
4609,662;0,03202204;
4607,733;0,03178072;
4605,805;0,03154195;
4603,876;0,03129029;
4601,947;0,03103318;
4600,018;0,03081488;
4598,090;0,03062179;
4596,161;0,03040611;
4594,232;0,03018248;
4592,303;0,02996407;
4590,375;0,02973523;
4588,446;0,0295245;
4586,517;0,02934723;
4584,589;0,02916581;
4582,660;0,02898525;
4580,731;0,02882921;
4578,802;0,02867299;
4576,874;0,02850205;
4574,945;0,0283145;
4573,016;0,02812368;
4571,087;0,02799685;
4569,159;0,02793595;
4567,230;0,02784481;
4565,301;0,02770395;
4563,373;0,02757372;
4561,444;0,0274645;
4559,515;0,02734711;
4557,586;0,02721444;
4555,658;0,02710204;
4553,729;0,02704006;
4551,800;0,02699727;
4549,871;0,02694396;
4547,943;0,02689273;
4546,014;0,02684618;
4544,085;0,02678702;
4542,157;0,02669976;
4540,228;0,02657597;
4538,299;0,02644516;
4536,370;0,0263737;
4534,442;0,02637648;
4532,513;0,02637443;
4530,584;0,02630314;
4528,655;0,02622537;
4526,727;0,02621841;
4524,798;0,02624631;
4522,869;0,02626443;
4520,940;0,0262873;
4519,012;0,02632247;
4517,083;0,02635546;
4515,154;0,02636794;
4513,226;0,0263431;
4511,297;0,0263182;
4509,368;0,02635425;
4507,439;0,02641143;
4505,511;0,0264225;
4503,582;0,02641184;
4501,653;0,02643429;
4499,724;0,02649918;
4497,796;0,02657313;
4495,867;0,02664321;
4493,938;0,02671248;
4492,010;0,02677148;
4490,081;0,02682526;
4488,152;0,02688495;
4486,223;0,02697296;
4484,295;0,02709289;
4482,366;0,02718811;
4480,437;0,02724024;
4478,508;0,02731396;
4476,580;0,0274341;
4474,651;0,02757146;
4472,722;0,02773029;
4470,794;0,02791045;
4468,865;0,02807279;
4466,936;0,02818618;
4465,007;0,02827503;
4463,079;0,02838662;
4461,150;0,02850093;
4459,221;0,02861706;
4457,292;0,02879023;
4455,364;0,02898934;
4453,435;0,02916175;
4451,506;0,02934137;
4449,578;0,02956149;
4447,649;0,02979918;
4445,720;0,03003116;
4443,791;0,0302796;
4441,863;0,03054858;
4439,934;0,03078558;
4438,005;0,03098958;
4436,076;0,03122278;
4434,148;0,03150396;
4432,219;0,03181482;
4430,290;0,0321254;
4428,362;0,0323934;
4426,433;0,03263789;
4424,504;0,03293135;
4422,575;0,03328072;
4420,647;0,03363492;
4418,718;0,03398662;
4416,789;0,03435389;
4414,860;0,03473587;
4412,932;0,03514009;
4411,003;0,03555067;
4409,074;0,03593297;
4407,145;0,03630516;
4405,217;0,03669638;
4403,288;0,0371226;
4401,359;0,03759915;
4399,431;0,03810111;
4397,502;0,03861479;
4395,573;0,03914035;
4393,644;0,03964212;
4391,716;0,04013964;
4389,787;0,04069407;
4387,858;0,04128632;
4385,929;0,0418614;
4384,001;0,04242511;
4382,072;0,04304096;
4380,143;0,04372958;
4378,215;0,04441103;
4376,286;0,04504837;
4374,357;0,04571228;
4372,428;0,04643088;
4370,500;0,04717336;
4368,571;0,0479322;
4366,642;0,0487145;
4364,713;0,04952067;
4362,785;0,05034729;
4360,856;0,05121284;
4358,927;0,05213638;
4356,999;0,05310155;
4355,070;0,05409506;
4353,141;0,05512302;
4351,212;0,05619741;
4349,284;0,05733371;
4347,355;0,05853938;
4345,426;0,05979205;
4343,497;0,06105316;
4341,569;0,06231973;
4339,640;0,06362456;
4337,711;0,06501318;
4335,783;0,06652332;
4333,854;0,0681394;
4331,925;0,0697886;
4329,996;0,0714168;
4328,068;0,07307665;
4326,139;0,07483542;
4324,210;0,07663605;
4322,281;0,07843935;
4320,353;0,08030799;
4318,424;0,08225088;
4316,495;0,08424924;
4314,567;0,08632631;
4312,638;0,08846789;
4310,709;0,09065949;
4308,780;0,09292363;
4306,852;0,09524973;
4304,923;0,09761561;
4302,994;0,1000438;
4301,065;0,1025659;
4299,137;0,105163;
4297,208;0,1077935;
4295,279;0,1104407;
4293,350;0,1131107;
4291,422;0,1158144;
4289,493;0,1185262;
4287,564;0,1212141;
4285,636;0,1238991;
4283,707;0,1266211;
4281,778;0,1294145;
4279,849;0,1322868;
4277,921;0,1352198;
4275,992;0,1381875;
4274,063;0,1411359;
4272,134;0,1440657;
4270,206;0,1470538;
4268,277;0,1501037;
4266,348;0,1531402;
4264,420;0,1561165;
4262,491;0,1590359;
4260,562;0,1619248;
4258,633;0,1647887;
4256,705;0,1676164;
4254,776;0,1703679;
4252,847;0,1729712;
4250,918;0,1754293;
4248,990;0,177775;
4247,061;0,1799824;
4245,132;0,1820132;
4243,204;0,1837959;
4241,275;0,1852945;
4239,346;0,1865753;
4237,417;0,1876319;
4235,489;0,1883693;
4233,560;0,1888236;
4231,631;0,1891101;
4229,702;0,1891926;
4227,774;0,1889368;
4225,845;0,1883264;
4223,916;0,1874979;
4221,988;0,1865432;
4220,059;0,1854152;
4218,130;0,1840763;
4216,201;0,1825624;
4214,273;0,1809062;
4212,344;0,1790846;
4210,415;0,1770574;
4208,486;0,1748312;
4206,558;0,1724283;
4204,629;0,1698747;
4202,700;0,1672045;
4200,772;0,1644007;
4198,843;0,1614263;
4196,914;0,1583073;
4194,985;0,1550915;
4193,057;0,1517923;
4191,128;0,1484379;
4189,199;0,1450778;
4187,270;0,1417233;
4185,342;0,1383566;
4183,413;0,1349633;
4181,484;0,1315562;
4179,555;0,1281998;
4177,627;0,1249203;
4175,698;0,1216597;
4173,769;0,1184171;
4171,841;0,1152541;
4169,912;0,1121737;
4167,983;0,1091369;
4166,054;0,1061176;
4164,126;0,103139;
4162,197;0,100248;
4160,268;0,09744167;
4158,339;0,0946947;
4156,411;0,09202467;
4154,482;0,08947873;
4152,553;0,08704609;
4150,625;0,08465862;
4148,696;0,08229698;
4146,767;0,07998956;
4144,838;0,07776534;
4142,910;0,07563839;
4140,981;0,07359482;
4139,052;0,07162638;
4137,123;0,06973417;
4135,195;0,0678774;
4133,266;0,06601588;
4131,337;0,06421338;
4129,409;0,06253963;
4127,480;0,06094361;
4125,551;0,05937957;
4123,622;0,05786191;
4121,694;0,05639828;
4119,765;0,05501207;
4117,836;0,05369468;
4115,907;0,05239076;
4113,979;0,05110141;
4112,050;0,04986531;
4110,121;0,04869026;
4108,193;0,04756764;
4106,264;0,04649558;
4104,335;0,0454623;
4102,406;0,04444044;
4100,478;0,04343906;
4098,549;0,04249282;
4096,620;0,04160015;
4094,691;0,04073521;
4092,763;0,03987763;
4090,834;0,03904166;
4088,905;0,03827348;
4086,977;0,03755863;
4085,048;0,03682988;
4083,119;0,03609191;
4081,190;0,03539444;
4079,262;0,0347348;
4077,333;0,03408263;
4075,404;0,03343677;
4073,475;0,0328232;
4071,547;0,03224534;
4069,618;0,03168666;
4067,689;0,031148;
4065,760;0,03061112;
4063,832;0,03006221;
4061,903;0,02955804;
4059,974;0,0291288;
4058,046;0,02870745;
4056,117;0,02824447;
4054,188;0,02776877;
4052,259;0,027326;
4050,331;0,0269334;
4048,402;0,02656943;
4046,473;0,02620141;
4044,544;0,02583512;
4042,616;0,02548502;
4040,687;0,02514015;
4038,758;0,02480607;
4036,830;0,02448798;
4034,901;0,02416504;
4032,972;0,02384258;
4031,043;0,02354673;
4029,115;0,02326434;
4027,186;0,02297405;
4025,257;0,02269167;
4023,328;0,02243174;
4021,400;0,02219445;
4019,471;0,02196156;
4017,542;0,02171285;
4015,614;0,0214722;
4013,685;0,02124913;
4011,756;0,0210348;
4009,827;0,02085496;
4007,899;0,02070298;
4005,970;0,02052365;
4004,041;0,02030058;
4002,112;0,02006788;
4000,184;0,01985953;
3998,255;0,01969187;
3996,326;0,01954198;
3994,398;0,01937738;
3992,469;0,01920353;
3990,540;0,01903212;
3988,611;0,01887747;
3986,683;0,01874716;
3984,754;0,01863407;
3982,825;0,01855252;
3980,896;0,01848307;
3978,968;0,01836515;
3977,039;0,01820158;
3975,110;0,01803128;
3973,181;0,01787076;
3971,253;0,01774282;
3969,324;0,01764272;
3967,395;0,01755296;
3965,467;0,01747861;
3963,538;0,01740494;
3961,609;0,01732505;
3959,680;0,01725475;
3957,752;0,01719141;
3955,823;0,01710042;
3953,894;0,01698958;
3951,965;0,01691668;
3950,037;0,01686862;
3948,108;0,0168269;
3946,179;0,01680184;
3944,251;0,01675218;
3942,322;0,01667406;
3940,393;0,01660177;
3938,464;0,01651816;
3936,536;0,01644004;
3934,607;0,01644997;
3932,678;0,01651352;
3930,749;0,01651182;
3928,821;0,01647289;
3926,892;0,01647629;
3924,963;0,01648661;
3923,035;0,01643752;
3921,106;0,01636404;
3919,177;0,01634462;
3917,248;0,01634634;
3915,320;0,01631711;
3913,391;0,01630457;
3911,462;0,0163219;
3909,533;0,01632047;
3907,605;0,01634146;
3905,676;0,01645476;
3903,747;0,01660102;
3901,819;0,0166661;
3899,890;0,01659696;
3897,961;0,01645412;
3896,032;0,01639855;
3894,104;0,01650468;
3892,175;0,0166441;
3890,246;0,01667478;
3888,317;0,01668011;
3886,389;0,01675414;
3884,460;0,01680217;
3882,531;0,01680778;
3880,603;0,01682196;
3878,674;0,01682789;
3876,745;0,0168828;
3874,816;0,01701249;
3872,888;0,01717767;
3870,959;0,01734831;
3869,030;0,01744933;
3867,101;0,01753215;
3865,173;0,01764587;
3863,244;0,0176404;
3861,315;0,01752903;
3859,386;0,01752461;
3857,458;0,01781817;
3855,529;0,0184547;
3853,600;0,0189484;
3851,672;0,01878972;
3849,743;0,01840148;
3847,814;0,0182919;
3845,885;0,01842956;
3843,957;0,01864552;
3842,028;0,01889587;
3840,099;0,01921591;
3838,170;0,01947809;
3836,242;0,01952485;
3834,313;0,01951126;
3832,384;0,01957445;
3830,456;0,01964378;
3828,527;0,01973478;
3826,598;0,01989162;
3824,669;0,02012016;
3822,741;0,02045354;
3820,812;0,02079398;
3818,883;0,02113099;
3816,954;0,02148843;
3815,026;0,02160808;
3813,097;0,02154257;
3811,168;0,02166833;
3809,240;0,02204403;
3807,311;0,02242832;
3805,382;0,02270051;
3803,453;0,02306314;
3801,525;0,02347925;
3799,596;0,02371129;
3797,667;0,02388485;
3795,738;0,024077;
3793,810;0,02421814;
3791,881;0,02442409;
3789,952;0,02479185;
3788,024;0,02523418;
3786,095;0,02563233;
3784,166;0,02601127;
3782,237;0,02648757;
3780,309;0,02700894;
3778,380;0,02741242;
3776,451;0,02775868;
3774,522;0,02822229;
3772,594;0,02882864;
3770,665;0,02947156;
3768,736;0,03005809;
3766,808;0,03063356;
3764,879;0,03120997;
3762,950;0,03178165;
3761,021;0,03246525;
3759,093;0,03321198;
3757,164;0,03392364;
3755,235;0,03484216;
3753,306;0,0361823;
3751,378;0,03755224;
3749,449;0,03839758;
3747,520;0,03914851;
3745,591;0,04033229;
3743,663;0,04120426;
3741,734;0,04141678;
3739,805;0,04199987;
3737,877;0,04336799;
3735,948;0,04489631;
3734,019;0,04609741;
3732,090;0,0470017;
3730,162;0,04786278;
3728,233;0,0489965;
3726,304;0,05042573;
3724,375;0,05189411;
3722,447;0,05334633;
3720,518;0,05481292;
3718,589;0,05630357;
3716,661;0,05803021;
3714,732;0,06028083;
3712,803;0,06287786;
3710,874;0,06505847;
3708,946;0,06660911;
3707,017;0,06815268;
3705,088;0,07021007;
3703,159;0,07273509;
3701,231;0,07520438;
3699,302;0,07742941;
3697,373;0,07974721;
3695,445;0,08240771;
3693,516;0,08555625;
3691,587;0,08932408;
3689,658;0,09314291;
3687,730;0,09574556;
3685,801;0,09726214;
3683,872;0,0992077;
3681,943;0,1021159;
3680,015;0,105741;
3678,086;0,110249;
3676,157;0,1148092;
3674,229;0,1178733;
3672,300;0,1203769;
3670,371;0,1231461;
3668,442;0,1248683;
3666,514;0,1258712;
3664,585;0,1275294;
3662,656;0,1297889;
3660,727;0,132274;
3658,799;0,1351588;
3656,870;0,1380539;
3654,941;0,1401604;
3653,013;0,1424377;
3651,084;0,1457896;
3649,155;0,1482775;
3647,226;0,1482051;
3645,298;0,1470123;
3643,369;0,1464768;
3641,440;0,1466563;
3639,511;0,1469485;
3637,583;0,1471454;
3635,654;0,1472795;
3633,725;0,1475057;
3631,796;0,1484478;
3629,868;0,1495391;
3627,939;0,1483768;
3626,010;0,1450787;
3624,082;0,1423269;
3622,153;0,1410634;
3620,224;0,1402214;
3618,295;0,13844;
3616,367;0,1358393;
3614,438;0,1334455;
3612,509;0,1313519;
3610,580;0,1291918;
3608,652;0,1265711;
3606,723;0,1232638;
3604,794;0,1198345;
3602,866;0,1168086;
3600,937;0,1139986;
3599,008;0,1111495;
3597,079;0,1082713;
3595,151;0,1053091;
3593,222;0,1022092;
3591,293;0,09931102;
3589,364;0,09679918;
3587,436;0,09405826;
3585,507;0,0906855;
3583,578;0,08722477;
3581,650;0,08413593;
3579,721;0,08132461;
3577,792;0,07862449;
3575,863;0,07597795;
3573,935;0,07338037;
3572,006;0,07094787;
3570,077;0,06883428;
3568,148;0,06683977;
3566,220;0,06455553;
3564,291;0,06204974;
3562,362;0,0596919;
3560,434;0,05754918;
3558,505;0,05550965;
3556,576;0,05357957;
3554,647;0,05179906;
3552,719;0,05009209;
3550,790;0,04839912;
3548,861;0,04680624;
3546,932;0,0453318;
3545,004;0,04386044;
3543,075;0,04237885;
3541,146;0,04098337;
3539,217;0,03970863;
3537,289;0,03850941;
3535,360;0,03734463;
3533,431;0,03620964;
3531,503;0,03512522;
3529,574;0,03411684;
3527,645;0,03317549;
3525,716;0,03226952;
3523,788;0,03137549;
3521,859;0,03049704;
3519,930;0,02966217;
3518,001;0,0288716;
3516,073;0,02810899;
3514,144;0,0273819;
3512,215;0,02670407;
3510,287;0,026061;
3508,358;0,02542158;
3506,429;0,02479076;
3504,500;0,02419822;
3502,572;0,02363817;
3500,643;0,02308045;
3498,714;0,02253839;
3496,785;0,02204202;
3494,857;0,02157013;
3492,928;0,02110113;
3490,999;0,02065208;
3489,071;0,02023209;
3487,142;0,01982685;
3485,213;0,01943228;
3483,284;0,01905595;
3481,356;0,01868614;
3479,427;0,01832107;
3477,498;0,01798038;
3475,569;0,01764405;
3473,641;0,01727376;
3471,712;0,01689295;
3469,783;0,01656184;
3467,855;0,0162924;
3465,926;0,01603288;
3463,997;0,01573856;
3462,068;0,01543261;
3460,140;0,01516272;
3458,211;0,014919;
3456,282;0,01466265;
3454,353;0,01441138;
3452,425;0,01419613;
3450,496;0,01399915;
3448,567;0,01380551;
3446,639;0,01362206;
3444,710;0,01344883;
3442,781;0,01326105;
3440,852;0,01303847;
3438,924;0,01282171;
3436,995;0,01264952;
3435,066;0,01250253;
3433,137;0,01236074;
3431,209;0,01221367;
3429,280;0,01204738;
3427,351;0,01186974;
3425,422;0,01169844;
3423,494;0,01154539;
3421,565;0,01141358;
3419,636;0,01129;
3417,708;0,01117134;
3415,779;0,0110574;
3413,850;0,01092804;
3411,921;0,0107893;
3409,993;0,01069611;
3408,064;0,01067446;
3406,135;0,01065834;
3404,206;0,01058214;
3402,278;0,01047858;
3400,349;0,01039913;
3398,420;0,01033745;
3396,492;0,0102658;
3394,563;0,0101743;
3392,634;0,01008632;
3390,705;0,01002175;
3388,777;0,009963695;
3386,848;0,009910438;
3384,919;0,009877804;
3382,990;0,009854968;
3381,062;0,009828066;
3379,133;0,009797974;
3377,204;0,009769224;
3375,276;0,009745006;
3373,347;0,009711673;
3371,418;0,00964389;
3369,489;0,009550843;
3367,561;0,009469296;
3365,632;0,009410187;
3363,703;0,00936632;
3361,774;0,009329732;
3359,846;0,00928971;
3357,917;0,009238685;
3355,988;0,009186262;
3354,060;0,009146509;
3352,131;0,009097421;
3350,202;0,009030487;
3348,273;0,008980024;
3346,345;0,008952197;
3344,416;0,008931159;
3342,487;0,008915123;
3340,558;0,008899223;
3338,630;0,008866196;
3336,701;0,008806595;
3334,772;0,00875327;
3332,844;0,008738471;
3330,915;0,008726163;
3328,986;0,008694732;
3327,057;0,008689729;
3325,129;0,008705629;
3323,200;0,008691958;
3321,271;0,008661433;
3319,342;0,0086517;
3317,414;0,008664464;
3315,485;0,008675289;
3313,556;0,008659648;
3311,627;0,008632495;
3309,699;0,008626032;
3307,770;0,008633396;
3305,841;0,008642316;
3303,913;0,008663386;
3301,984;0,008687053;
3300,055;0,00869729;
3298,126;0,008706397;
3296,198;0,008720211;
3294,269;0,008723809;
3292,340;0,008715346;
3290,411;0,008703769;
3288,483;0,008704455;
3286,554;0,008739075;
3284,625;0,008784486;
3282,697;0,008809382;
3280,768;0,00883724;
3278,839;0,008871931;
3276,910;0,008891486;
3274,982;0,008908886;
3273,053;0,008937882;
3271,124;0,008976034;
3269,195;0,009015345;
3267,267;0,009048354;
3265,338;0,009094669;
3263,409;0,00916385;
3261,481;0,009219307;
3259,552;0,009252379;
3257,623;0,009303226;
3255,694;0,009376948;
3253,766;0,009443085;
3251,837;0,009487912;
3249,908;0,00952205;
3247,979;0,009572505;
3246,051;0,009649869;
3244,122;0,009741677;
3242,193;0,009834125;
3240,265;0,009913214;
3238,336;0,009985334;
3236,407;0,01006408;
3234,478;0,0101476;
3232,550;0,01023963;
3230,621;0,01033757;
3228,692;0,01044188;
3226,763;0,01055222;
3224,835;0,0106449;
3222,906;0,0107389;
3220,977;0,01086701;
3219,049;0,01099713;
3217,120;0,01110704;
3215,191;0,01121958;
3213,262;0,01135156;
3211,334;0,01149995;
3209,405;0,01165498;
3207,476;0,0118124;
3205,547;0,01196946;
3203,619;0,01213455;
3201,690;0,01231699;
3199,761;0,01250023;
3197,832;0,01267005;
3195,904;0,0128358;
3193,975;0,01301568;
3192,046;0,01321696;
3190,118;0,01343718;
3188,189;0,01368991;
3186,260;0,01396486;
3184,331;0,01420277;
3182,403;0,01439316;
3180,474;0,01459664;
3178,545;0,01485471;
3176,616;0,01516752;
3174,688;0,01550308;
3172,759;0,01581994;
3170,830;0,01612191;
3168,902;0,01644018;
3166,973;0,01678678;
3165,044;0,01716414;
3163,115;0,0175703;
3161,187;0,01798324;
3159,258;0,01838861;
3157,329;0,01880655;
3155,400;0,01925335;
3153,472;0,0197306;
3151,543;0,02025089;
3149,614;0,02081468;
3147,686;0,02139804;
3145,757;0,02198274;
3143,828;0,02257095;
3141,899;0,02319332;
3139,971;0,02387842;
3138,042;0,02459982;
3136,113;0,02534496;
3134,184;0,02615647;
3132,256;0,02703183;
3130,327;0,02793701;
3128,398;0,0288752;
3126,470;0,02986533;
3124,541;0,0309344;
3122,612;0,0320835;
3120,683;0,03328512;
3118,755;0,03454295;
3116,826;0,03586783;
3114,897;0,03726361;
3112,968;0,03875448;
3111,040;0,0403549;
3109,111;0,04206002;
3107,182;0,04385559;
3105,253;0,0457377;
3103,325;0,04774517;
3101,396;0,04988581;
3099,467;0,05211623;
3097,539;0,05445027;
3095,610;0,05692415;
3093,681;0,05953056;
3091,752;0,06226021;
3089,824;0,06507999;
3087,895;0,06794523;
3085,966;0,07088716;
3084,037;0,07396822;
3082,109;0,07717215;
3080,180;0,08041569;
3078,251;0,08362857;
3076,323;0,08678938;
3074,394;0,08989896;
3072,465;0,09293691;
3070,536;0,09587933;
3068,608;0,09869403;
3066,679;0,1013038;
3064,750;0,1036619;
3062,821;0,1057756;
3060,893;0,1076333;
3058,964;0,1092176;
3057,035;0,1105025;
3055,107;0,1114288;
3053,178;0,1119734;
3051,249;0,1121668;
3049,320;0,1119949;
3047,392;0,1113727;
3045,463;0,1102213;
3043,534;0,108492;
3041,605;0,1061493;
3039,677;0,1032154;
3037,748;0,09980452;
3035,819;0,09605238;
3033,891;0,0920468;
3031,962;0,08784476;
3030,033;0,08353417;
3028,104;0,07923113;
3026,176;0,07498733;
3024,247;0,07079274;
3022,318;0,06664386;
3020,389;0,06257332;
3018,461;0,0586421;
3016,532;0,05486169;
3014,603;0,05120423;
3012,675;0,04768235;
3010,746;0,04431718;
3008,817;0,04110846;
3006,888;0,03806788;
3004,960;0,03521967;
3003,031;0,03256469;
3001,102;0,03007429;
2999,173;0,02774014;
2997,245;0,02557769;
2995,316;0,02356354;
2993,387;0,02166535;
2991,458;0,01989577;
2989,530;0,01826585;
2987,601;0,01676444;
2985,672;0,01536836;
2983,744;0,0140558;
2981,815;0,01283863;
2979,886;0,01171832;
2977,957;0,01067149;
2976,029;0,009712201;
2974,100;0,008842984;
2972,171;0,008031254;
2970,242;0,00728813;
2968,314;0,006630753;
2966,385;0,006035689;
2964,456;0,005495221;
2962,528;0,005028845;
2960,599;0,004645122;
2958,670;0,00434117;
2956,741;0,004113545;
2954,813;0,003929883;
2952,884;0,003741369;
2950,955;0,00353032;
2949,026;0,003308034;
2947,098;0,00309512;
2945,169;0,002899531;
2943,240;0,002729614;
2941,312;0,002614675;
2939,383;0,002591951;
2937,454;0,002686072;
2935,525;0,002876398;
2933,597;0,003141556;
2931,668;0,003526961;
2929,739;0,004090884;
2927,810;0,004829486;
2925,882;0,005696375;
2923,953;0,006674853;
2922,024;0,00779383;
2920,096;0,009064917;
2918,167;0,01043592;
2916,238;0,0117921;
2914,309;0,01296376;
2912,381;0,01379965;
2910,452;0,01427669;
2908,523;0,01449593;
2906,594;0,01457374;
2904,666;0,0145651;
2902,737;0,01449748;
2900,808;0,01439283;
2898,880;0,01422965;
2896,951;0,01397386;
2895,022;0,01361792;
2893,093;0,01317098;
2891,165;0,01265561;
2889,236;0,01209421;
2887,307;0,01148867;
2885,378;0,01083581;
2883,450;0,01015796;
2881,521;0,00949069;
2879,592;0,008846593;
2877,663;0,008217732;
2875,735;0,007611542;
2873,806;0,007042878;
2871,877;0,006516338;
2869,949;0,006055236;
2868,020;0,005705106;
2866,091;0,005524493;
2864,162;0,005584885;
2862,234;0,005957976;
2860,305;0,006677829;
2858,376;0,007711026;
2856,447;0,008991648;
2854,519;0,01041591;
2852,590;0,01179862;
2850,661;0,0129035;
2848,733;0,01353964;
2846,804;0,01366954;
2844,875;0,01340556;
2842,946;0,0129114;
2841,018;0,01231997;
2839,089;0,01170869;
2837,160;0,01113502;
2835,231;0,01064065;
2833,303;0,01021311;
2831,374;0,009812937;
2829,445;0,009454285;
2827,517;0,009176509;
2825,588;0,008953744;
2823,659;0,008732685;
2821,730;0,008501076;
2819,802;0,008279175;
2817,873;0,0080839;
2815,944;0,007898492;
2814,015;0,007698693;
2812,087;0,00748611;
2810,158;0,007277092;
2808,229;0,007100937;
2806,301;0,006961624;
2804,372;0,00681497;
2802,443;0,006646104;
2800,514;0,006485639;
2798,586;0,006350382;
2796,657;0,006232158;
2794,728;0,006117785;
2792,799;0,006014113;
2790,871;0,005928824;
2788,942;0,005836211;
2787,013;0,005720511;
2785,085;0,005612108;
2783,156;0,00552836;
2781,227;0,005439406;
2779,298;0,005338812;
2777,370;0,005257043;
2775,441;0,00519374;
2773,512;0,005133785;
2771,583;0,00507352;
2769,655;0,005004472;
2767,726;0,004935778;
2765,797;0,004877013;
2763,868;0,004813668;
2761,940;0,004746961;
2760,011;0,004685813;
2758,082;0,00463185;
2756,154;0,004590469;
2754,225;0,00455571;
2752,296;0,004520681;
2750,367;0,004478709;
2748,439;0,004422233;
2746,510;0,004364964;
2744,581;0,00432726;
2742,652;0,004311495;
2740,724;0,004299699;
2738,795;0,004270565;
2736,866;0,004217972;
2734,938;0,00416485;
2733,009;0,00415008;
2731,080;0,004161386;
2729,151;0,004141944;
2727,223;0,004085632;
2725,294;0,004038776;
2723,365;0,004024438;
2721,436;0,004019272;
2719,508;0,003993693;
2717,579;0,003953004;
2715,650;0,003919265;
2713,722;0,00389231;
2711,793;0,003868856;
2709,864;0,003865319;
2707,935;0,003885834;
2706,007;0,003903712;
2704,078;0,003896589;
2702,149;0,003874639;
2700,220;0,003850659;
2698,292;0,003819305;
2696,363;0,003788579;
2694,434;0,003779229;
2692,506;0,003790347;
2690,577;0,003798094;
2688,648;0,003791003;
2686,719;0,003783864;
2684,791;0,00378148;
2682,862;0,003777092;
2680,933;0,003776753;
2679,004;0,003778702;
2677,076;0,003770598;
2675,147;0,003750878;
2673,218;0,00373038;
2671,290;0,003722574;
2669,361;0,003723633;
2667,432;0,00372582;
2665,503;0,003735906;
2663,575;0,003754257;
2661,646;0,003771331;
2659,717;0,003780408;
2657,788;0,003782744;
2655,860;0,003786035;
2653,931;0,003788004;
2652,002;0,003780706;
2650,073;0,003779299;
2648,145;0,003805213;
2646,216;0,003835807;
2644,287;0,003858816;
2642,359;0,003907988;
2640,430;0,003958733;
2638,501;0,003960596;
2636,572;0,003947149;
2634,644;0,003967153;
2632,715;0,004004612;
2630,786;0,004028526;
2628,857;0,004042012;
2626,929;0,004049614;
2625,000;0,004061166;
2623,071;0,004100112;
2621,143;0,004155302;
2619,214;0,004200215;
2617,285;0,00422665;
2615,356;0,0042526;
2613,428;0,00429378;
2611,499;0,004318933;
2609,570;0,004318967;
2607,641;0,004336448;
2605,713;0,004375233;
2603,784;0,004416164;
2601,855;0,004469362;
2599,927;0,004530047;
2597,998;0,004583249;
2596,069;0,004646793;
2594,140;0,004718177;
2592,212;0,004774697;
2590,283;0,004825302;
2588,354;0,004874944;
2586,425;0,00491424;
2584,497;0,004950736;
2582,568;0,00499677;
2580,639;0,005052172;
2578,711;0,005120277;
2576,782;0,005195722;
2574,853;0,005252744;
2572,924;0,005295308;
2570,996;0,005346654;
2569,067;0,005416581;
2567,138;0,00552399;
2565,209;0,005668136;
2563,281;0,005800406;
2561,352;0,005890466;
2559,423;0,005962836;
2557,494;0,006048359;
2555,566;0,006150825;
2553,637;0,00625685;
2551,708;0,006360558;
2549,780;0,006474428;
2547,851;0,006602905;
2545,922;0,006738475;
2543,993;0,006879941;
2542,065;0,007033424;
2540,136;0,007191407;
2538,207;0,007331314;
2536,278;0,007464086;
2534,350;0,007621708;
2532,421;0,007805717;
2530,492;0,008009403;
2528,564;0,008229672;
2526,635;0,008450462;
2524,706;0,008660934;
2522,777;0,008876543;
2520,849;0,009128102;
2518,920;0,009415112;
2516,991;0,009698374;
2515,062;0,009962197;
2513,134;0,01022595;
2511,205;0,0105142;
2509,276;0,01084831;
2507,348;0,01121798;
2505,419;0,01159885;
2503,490;0,01200235;
2501,561;0,0124423;
2499,633;0,01290852;
2497,704;0,01338861;
2495,775;0,01387616;
2493,846;0,01439143;
2491,918;0,01495146;
2489,989;0,01554381;
2488,060;0,01618549;
2486,132;0,01690559;
2484,203;0,01768734;
2482,274;0,01849689;
2480,345;0,01933411;
2478,417;0,02023282;
2476,488;0,0212006;
2474,559;0,02222602;
2472,630;0,0233255;
2470,702;0,02449838;
2468,773;0,02572461;
2466,844;0,02701676;
2464,916;0,0284115;
2462,987;0,02994164;
2461,058;0,03161236;
2459,129;0,03340245;
2457,201;0,03529324;
2455,272;0,03728614;
2453,343;0,03940267;
2451,414;0,04165358;
2449,486;0,0440217;
2447,557;0,04649166;
2445,628;0,04906802;
2443,699;0,05175998;
2441,771;0,05453848;
2439,842;0,05734434;
2437,913;0,06015841;
2435,985;0,06296867;
2434,056;0,06571458;
2432,127;0,06833704;
2430,198;0,07078607;
2428,270;0,07300993;
2426,341;0,07501346;
2424,412;0,07685094;
2422,483;0,07853092;
2420,555;0,07998756;
2418,626;0,08116119;
2416,697;0,08203149;
2414,769;0,08254635;
2412,840;0,08262461;
2410,911;0,08223733;
2408,982;0,08140552;
2407,054;0,08014285;
2405,125;0,07844476;
2403,196;0,07632437;
2401,267;0,07383869;
2399,339;0,07107198;
2397,410;0,06811228;
2395,481;0,06503982;
2393,553;0,06189565;
2391,624;0,05869152;
2389,695;0,05548645;
2387,766;0,05236553;
2385,838;0,04937154;
2383,909;0,04653878;
2381,980;0,04390083;
2380,051;0,04146011;
2378,123;0,03921172;
2376,194;0,03714961;
2374,265;0,03525078;
2372,337;0,03348325;
2370,408;0,0318201;
2368,479;0,03024149;
2366,550;0,02872749;
2364,622;0,02726431;
2362,693;0,02583949;
2360,764;0,02443235;
2358,835;0,02302565;
2356,907;0,0216076;
2354,978;0,02018798;
2353,049;0,01879937;
2351,121;0,01751069;
2349,192;0,01645819;
2347,263;0,01570981;
2345,334;0,01514501;
2343,406;0,01460421;
2341,477;0,01403427;
2339,548;0,0134468;
2337,619;0,01287387;
2335,691;0,01232385;
2333,762;0,0117694;
2331,833;0,01122165;
2329,904;0,01072329;
2327,976;0,01027725;
2326,047;0,00985201;
2324,118;0,009425415;
2322,190;0,009010794;
2320,261;0,008633151;
2318,332;0,008284411;
2316,403;0,007947521;
2314,475;0,007622805;
2312,546;0,007314314;
2310,617;0,007040007;
2308,688;0,006802581;
2306,760;0,006566419;
2304,831;0,006321742;
2302,902;0,006091313;
2300,974;0,005880533;
2299,045;0,005693342;
2297,116;0,005541322;
2295,187;0,005405007;
2293,259;0,005252587;
2291,330;0,005093173;
2289,401;0,004949365;
2287,472;0,004813153;
2285,544;0,004685184;
2283,615;0,00458551;
2281,686;0,004496232;
2279,758;0,004384081;
2277,829;0,004254808;
2275,900;0,004127504;
2273,971;0,004015628;
2272,043;0,003930868;
2270,114;0,003865;
2268,185;0,003789657;
2266,256;0,003687307;
2264,328;0,003574366;
2262,399;0,00347844;
2260,470;0,003401731;
2258,542;0,00333402;
2256,613;0,003282896;
2254,684;0,003248966;
2252,755;0,003200008;
2250,827;0,00311629;
2248,898;0,00302343;
2246,969;0,002955157;
2245,040;0,002909073;
2243,112;0,002861075;
2241,183;0,002811996;
2239,254;0,002771525;
2237,326;0,00272735;
2235,397;0,002678193;
2233,468;0,002641203;
2231,539;0,002617693;
2229,611;0,002596648;
2227,682;0,002559899;
2225,753;0,002497782;
2223,824;0,002441505;
2221,896;0,002414793;
2219,967;0,002391173;
2218,038;0,002346525;
2216,109;0,002297241;
2214,181;0,002264621;
2212,252;0,002238921;
2210,323;0,002201513;
2208,395;0,002159901;
2206,466;0,002132455;
2204,537;0,002115379;
2202,608;0,002089192;
2200,680;0,002054403;
2198,751;0,002029539;
2196,822;0,002012515;
2194,893;0,001990636;
2192,965;0,00197009;
2191,036;0,001954618;
2189,107;0,001940126;
2187,179;0,001927295;
2185,250;0,001912384;
2183,321;0,001893758;
2181,392;0,001875565;
2179,464;0,001859988;
2177,535;0,001844654;
2175,606;0,001826805;
2173,677;0,001817123;
2171,749;0,00181279;
2169,820;0,001793676;
2167,891;0,001763094;
2165,963;0,001734306;
2164,034;0,001711294;
2162,105;0,001701209;
2160,176;0,001702666;
2158,248;0,001696489;
2156,319;0,00167283;
2154,390;0,001648568;
2152,461;0,001643034;
2150,533;0,001648272;
2148,604;0,001640398;
2146,675;0,00162267;
2144,747;0,00160956;
2142,818;0,001596856;
2140,889;0,001587803;
2138,960;0,001579332;
2137,032;0,001555256;
2135,103;0,001527201;
2133,174;0,001517677;
2131,245;0,001525551;
2129,317;0,001526809;
2127,388;0,001508582;
2125,459;0,001497131;
2123,530;0,001513138;
2121,602;0,001534806;
2119,673;0,001532585;
2117,744;0,001504496;
2115,816;0,001481071;
2113,887;0,001488868;
2111,958;0,001505347;
2110,029;0,001501737;
2108,101;0,001500895;
2106,172;0,001516665;
2104,243;0,001519661;
2102,314;0,001512275;
2100,386;0,001516353;
2098,457;0,001507657;
2096,528;0,001477694;
2094,600;0,001463596;
2092,671;0,001475871;
2090,742;0,001491963;
2088,813;0,001499093;
2086,885;0,00150104;
2084,956;0,001505116;
2083,027;0,001507436;
2081,098;0,001497282;
2079,170;0,001482297;
2077,241;0,001482385;
2075,312;0,001499078;
2073,384;0,00151477;
2071,455;0,001518042;
2069,526;0,001516718;
2067,597;0,001520191;
2065,669;0,001522873;
2063,740;0,001518357;
2061,811;0,001512269;
2059,882;0,001521645;
2057,954;0,001549469;
2056,025;0,00157139;
2054,096;0,001574966;
2052,168;0,00157397;
2050,239;0,001581907;
2048,310;0,001597568;
2046,381;0,001611212;
2044,453;0,001623633;
2042,524;0,001640017;
2040,595;0,001653711;
2038,666;0,001657395;
2036,738;0,001655861;
2034,809;0,00166294;
2032,880;0,001679053;
2030,952;0,001683967;
2029,023;0,001677977;
2027,094;0,001680066;
2025,165;0,001687764;
2023,237;0,001697642;
2021,308;0,001720282;
2019,379;0,001753558;
2017,450;0,001778826;
2015,522;0,001791297;
2013,593;0,001811649;
2011,664;0,001837563;
2009,735;0,001841248;
2007,807;0,001833992;
2005,878;0,001847365;
2003,949;0,001876008;
2002,021;0,001908155;
2000,092;0,001943191;
1998,163;0,001967066;
1996,234;0,001979606;
1994,306;0,001996632;
1992,377;0,002022504;
1990,448;0,002066434;
1988,519;0,00212455;
1986,591;0,002167928;
1984,662;0,002189843;
1982,733;0,002206249;
1980,805;0,002232918;
1978,876;0,002271956;
1976,947;0,002304852;
1975,018;0,002339544;
1973,090;0,002394791;
1971,161;0,002450141;
1969,232;0,002493794;
1967,303;0,002538798;
1965,375;0,002587315;
1963,446;0,00264024;
1961,517;0,002703355;
1959,589;0,002772789;
1957,660;0,00284102;
1955,731;0,002903597;
1953,802;0,002956299;
1951,874;0,003013152;
1949,945;0,003085117;
1948,016;0,003155854;
1946,087;0,003225825;
1944,159;0,003309599;
1942,230;0,003393768;
1940,301;0,003466915;
1938,373;0,003549899;
1936,444;0,003659317;
1934,515;0,003787676;
1932,586;0,003923198;
1930,658;0,004060816;
1928,729;0,004205498;
1926,800;0,004368068;
1924,871;0,004542042;
1922,943;0,004704359;
1921,014;0,00486636;
1919,085;0,005057611;
1917,157;0,005257625;
1915,228;0,005445924;
1913,299;0,00565321;
1911,370;0,005905281;
1909,442;0,006193488;
1907,513;0,006492499;
1905,584;0,006796972;
1903,655;0,007134817;
1901,727;0,00752359;
1899,798;0,007955709;
1897,869;0,008419764;
1895,940;0,008902913;
1894,012;0,009420017;
1892,083;0,01002446;
1890,154;0,01071163;
1888,226;0,01140737;
1886,297;0,01212093;
1884,368;0,01293818;
1882,439;0,01386483;
1880,511;0,01484189;
1878,582;0,01585056;
1876,653;0,01691266;
1874,724;0,0180478;
1872,796;0,01928407;
1870,867;0,02067001;
1868,938;0,02219915;
1867,010;0,02381655;
1865,081;0,02556873;
1863,152;0,02754757;
1861,223;0,02971661;
1859,295;0,03195518;
1857,366;0,03415874;
1855,437;0,03625569;
1853,508;0,03818709;
1851,580;0,03988536;
1849,651;0,04126396;
1847,722;0,04227673;
1845,794;0,04284743;
1843,865;0,0426298;
1841,936;0,04149582;
1840,007;0,03987554;
1838,079;0,03802209;
1836,150;0,03588683;
1834,221;0,03357128;
1832,292;0,03126014;
1830,364;0,02892771;
1828,435;0,02651357;
1826,506;0,02414946;
1824,578;0,02189255;
1822,649;0,01970565;
1820,720;0,01765686;
1818,791;0,01581952;
1816,863;0,01419006;
1814,934;0,01275952;
1813,005;0,01154163;
1811,076;0,010533;
1809,148;0,00971197;
1807,219;0,009066975;
1805,290;0,008577555;
1803,362;0,00817073;
1801,433;0,007752885;
1799,504;0,007278139;
1797,575;0,006759312;
1795,647;0,006246798;
1793,718;0,005774429;
1791,789;0,005319935;
1789,860;0,00486669;
1787,932;0,004448506;
1786,003;0,004083156;
1784,074;0,003750442;
1782,145;0,003442483;
1780,217;0,003167401;
1778,288;0,002925603;
1776,359;0,002713932;
1774,431;0,002527738;
1772,502;0,002354097;
1770,573;0,002192973;
1768,644;0,002058645;
1766,716;0,001956475;
1764,787;0,001875898;
1762,858;0,001782687;
1760,929;0,001667759;
1759,001;0,001559016;
1757,072;0,001452588;
1755,143;0,001343474;
1753,215;0,001247669;
1751,286;0,001165434;
1749,357;0,001098502;
1747,428;0,001042574;
1745,500;0,0009698562;
1743,571;0,0008803627;
1741,642;0,0008061025;
1739,713;0,0007549592;
1737,785;0,0007123328;
1735,856;0,0006651292;
1733,927;0,0006065812;
1731,999;0,0005442817;
1730,070;0,0004889189;
1728,141;0,0004336528;
1726,212;0,0003624963;
1724,284;0,0002693036;
1722,355;0,0001655389;
1720,426;7,916411E-5;
1718,497;3,104757E-5;
1716,569;2,199561E-5;
1714,640;3,287914E-5;
1712,711;3,69439E-5;
1710,783;3,156227E-5;
1708,854;3,245183E-5;
1706,925;5,081205E-5;
1704,996;0,0001036444;
1703,068;0,0002284938;
1701,139;0,0004571229;
1699,210;0,0008043985;
1697,281;0,001331441;
1695,353;0,002164406;
1693,424;0,003387299;
1691,495;0,005065967;
1689,567;0,007113563;
1687,638;0,009050712;
1685,709;0,01021949;
1683,780;0,01008254;
1681,852;0,008914619;
1679,923;0,00758804;
1677,994;0,006587342;
1676,065;0,005929663;
1674,137;0,005449141;
1672,208;0,005042019;
1670,279;0,004676244;
1668,350;0,004312483;
1666,422;0,003948469;
1664,493;0,003608462;
1662,564;0,003279654;
1660,636;0,002958286;
1658,707;0,002679057;
1656,778;0,002474058;
1654,849;0,00233767;
1652,921;0,002189983;
1650,992;0,001995251;
1649,063;0,001842256;
1647,134;0,001747664;
1645,206;0,001648174;
1643,277;0,001545013;
1641,348;0,001475319;
1639,420;0,001445261;
1637,491;0,001434259;
1635,562;0,001402181;
1633,633;0,001344494;
1631,705;0,001289916;
1629,776;0,001251082;
1627,847;0,001228043;
1625,918;0,001203298;
1623,990;0,001164423;
1622,061;0,001119264;
1620,132;0,0010762;
1618,204;0,001042946;
1616,275;0,001014475;
1614,346;0,0009817675;
1612,417;0,0009560667;
1610,489;0,0009440462;
1608,560;0,0009336229;
1606,631;0,0009142436;
1604,702;0,0008864781;
1602,774;0,0008547814;
1600,845;0,0008326262;
1598,916;0,0008286257;
1596,988;0,0008219284;
1595,059;0,0007960426;
1593,130;0,0007672137;
1591,201;0,0007506281;
1589,273;0,0007372094;
1587,344;0,0007176525;
1585,415;0,0006979416;
1583,486;0,0006824328;
1581,558;0,0006670523;
1579,629;0,0006510817;
1577,700;0,0006442842;
1575,771;0,0006509326;
1573,843;0,0006565526;
1571,914;0,0006524842;
1569,985;0,0006470254;
1568,057;0,0006426306;
1566,128;0,0006383942;
1564,199;0,0006382561;
1562,270;0,0006475926;
1560,342;0,0006569739;
1558,413;0,0006421673;
1556,484;0,000610506;
1554,555;0,0005918285;
1552,627;0,0005791996;
1550,698;0,0005485553;
1548,769;0,0005112092;
1546,841;0,000501417;
1544,912;0,0005244853;
1542,983;0,000557628;
1541,054;0,0005784283;
1539,126;0,0005704078;
1537,197;0,0005394976;
1535,268;0,0005117664;
1533,339;0,0004976154;
1531,411;0,00048336;
1529,482;0,0004702492;
1527,553;0,0004739221;
1525,625;0,0004864549;
1523,696;0,0004981437;
1521,767;0,0005088945;
1519,838;0,0005164325;
1517,910;0,0005157753;
1515,981;0,0004981217;
1514,052;0,0004654427;
1512,123;0,0004429386;
1510,195;0,0004455187;
1508,266;0,0004560559;
1506,337;0,000455322;
1504,409;0,0004520224;
1502,480;0,0004619014;
1500,551;0,0004808836;
1498,622;0,0004859283;
1496,694;0,0004742648;
1494,765;0,0004594754;
1492,836;0,0004502604;
1490,907;0,0004577799;
1488,979;0,0004734627;
1487,050;0,000470349;
1485,121;0,000445687;
1483,193;0,0004261249;
1481,264;0,0004276692;
1479,335;0,0004392494;
1477,406;0,0004549177;
1475,478;0,0004744887;
1473,549;0,0004805955;
1471,620;0,0004652292;
1469,691;0,0004506976;
1467,763;0,0004454123;
1465,834;0,0004358915;
1463,905;0,0004238352;
1461,976;0,0004253982;
1460,048;0,000439832;
1458,119;0,0004493637;
1456,190;0,0004419148;
1454,262;0,0004189507;
1452,333;0,0003838909;
1450,404;0,0003463608;
1448,475;0,0003262059;
1446,547;0,000337876;
1444,618;0,0003763453;
1442,689;0,0004168821;
1440,760;0,0004398347;
1438,832;0,0004458324;
1436,903;0,0004337232;
1434,974;0,000402668;
1433,046;0,0003718968;
1431,117;0,0003591981;
1429,188;0,0003612346;
1427,259;0,0003716978;
1425,331;0,0003872994;
1423,402;0,0004018451;
1421,473;0,0004170937;
1419,544;0,0004354085;
1417,616;0,0004473444;
1415,687;0,0004452912;
1413,758;0,0004226805;
1411,830;0,0003867953;
1409,901;0,0003748812;
1407,972;0,0003982932;
1406,043;0,0004209683;
1404,115;0,0004291048;
1402,186;0,0004337704;
1400,257;0,0004475915;
1398,328;0,000469753;
1396,400;0,0004712889;
1394,471;0,0004326023;
1392,542;0,0003996794;
1390,614;0,0004051368;
1388,685;0,0004178243;
1386,756;0,0004197721;
1384,827;0,0004337772;
1382,899;0,0004633182;
1380,970;0,0004845601;
1379,041;0,0004867178;
1377,112;0,0004932297;
1375,184;0,000525402;
1373,255;0,0005621467;
1371,326;0,0005728141;
1369,398;0,0005749046;
1367,469;0,0005896726;
1365,540;0,0005994433;
1363,611;0,0005955184;
1361,683;0,0005996083;
1359,754;0,0006179343;
1357,825;0,0006444805;
1355,896;0,0006744636;
1353,968;0,0006959583;
1352,039;0,0007035427;
1350,110;0,0006867559;
1348,181;0,0006348026;
1346,253;0,0005732851;
1344,324;0,0005352753;
1342,395;0,0005219281;
1340,467;0,0005082582;
1338,538;0,0004895153;
1336,609;0,0005018115;
1334,680;0,0005478287;
1332,752;0,0005869848;
1330,823;0,0006037888;
1328,894;0,0006163407;
1326,965;0,0006508471;
1325,037;0,0007122245;
1323,108;0,0007731425;
1321,179;0,0008041317;
1319,251;0,0007981121;
1317,322;0,0007688833;
1315,393;0,0007085865;
1313,464;0,0005947152;
1311,536;0,0004708919;
1309,607;0,00041497;
1307,678;0,0004348876;
1305,749;0,0004878782;
1303,821;0,0005449852;
1301,892;0,0005956992;
1299,963;0,0006357482;
1298,035;0,0006692113;
1296,106;0,0007071709;
1294,177;0,0007517644;
1292,248;0,0007900317;
1290,320;0,0008152438;
1288,391;0,0008472329;
1286,462;0,0008974137;
1284,533;0,0009519435;
1282,605;0,001008618;
1280,676;0,001071709;
1278,747;0,001136194;
1276,819;0,001207259;
1274,890;0,001281333;
1272,961;0,001347652;
1271,032;0,001402155;
1269,104;0,001441519;
1267,175;0,001475614;
1265,246;0,001509082;
1263,317;0,00154622;
1261,389;0,001622502;
1259,460;0,001764447;
1257,531;0,00195253;
1255,603;0,002151436;
1253,674;0,002343467;
1251,745;0,002527219;
1249,816;0,002713047;
1247,888;0,002922571;
1245,959;0,003161197;
1244,030;0,003402174;
1242,101;0,003613076;
1240,173;0,003755962;
1238,244;0,003776724;
1236,315;0,003644578;
1234,386;0,003367988;
1232,458;0,002955745;
1230,529;0,002409789;
1228,600;0,001788861;
1226,672;0,001220278;
1224,743;0,0008064936;
1222,814;0,0005779224;
1220,885;0,0005134525;
1218,957;0,0005733942;
1217,028;0,0007359617;
1215,099;0,0009893746;
1213,170;0,001315641;
1211,242;0,001696841;
1209,313;0,002115936;
1207,384;0,002570928;
1205,456;0,003083045;
1203,527;0,003667653;
1201,598;0,004305767;
1199,669;0,004951119;
1197,741;0,005544262;
1195,812;0,006029316;
1193,883;0,006363539;
1191,954;0,006512674;
1190,026;0,006474576;
1188,097;0,00630742;
1186,168;0,006072575;
1184,240;0,005768672;
1182,311;0,005392281;
1180,382;0,004972666;
1178,453;0,004531258;
1176,525;0,004101285;
1174,596;0,003713442;
1172,667;0,003352866;
1170,738;0,003001303;
1168,810;0,002676935;
1166,881;0,002400155;
1164,952;0,002169006;
1163,024;0,001962284;
1161,095;0,001759972;
1159,166;0,001579421;
1157,237;0,001431549;
1155,309;0,001300439;
1153,380;0,001180561;
1151,451;0,001060769;
1149,522;0,0009540576;
1147,594;0,0008871274;
1145,665;0,000822355;
1143,736;0,000733975;
1141,807;0,0006546293;
1139,879;0,0005919086;
1137,950;0,0005270837;
1136,021;0,0004571984;
1134,093;0,0003959362;
1132,164;0,0003458662;
1130,235;0,0002813542;
1128,306;0,0002111664;
1126,378;0,0001747755;
1124,449;0,0001863029;
1122,520;0,0002073589;
1120,591;0,0002034185;
1118,663;0,0002063882;
1116,734;0,0002769957;
1114,805;0,0003844055;
1112,877;0,0004511953;
1110,948;0,0004566615;
1109,019;0,0004368181;
1107,090;0,0004046585;
1105,162;0,0003557052;
1103,233;0,0003042171;
1101,304;0,000248116;
1099,375;0,000193353;
1097,447;0,0001807247;
1095,518;0,0002081738;
1093,589;0,000216573;
1091,661;0,0002023581;
1089,732;0,0001682995;
1087,803;0,0001636953;
1085,874;0,0001951818;
1083,946;0,0001848953;
1082,017;0,0001368763;
1080,088;0,0001447706;
1078,159;0,0001543208;
1076,231;0,0001395749;
1074,302;0,0001584364;
1072,373;0,0001643245;
1070,445;0,0001361822;
1068,516;0,0001232625;
1066,587;0,0001277661;
1064,658;0,0001074144;
1062,730;0,0001031949;
1060,801;0,0001011459;
1058,872;4,843682E-5;
1056,943;8,22496E-5;
1055,015;8,948016E-5;
1053,086;7,135738E-5;
1051,157;0,0001013544;
1049,229;0,0001339914;
1047,300;0,0001396315;
1045,371;0,0001281059;
1043,442;0,0001183865;
1041,514;0,0001528174;
1039,585;0,0001899635;
1037,656;0,0001776598;
1035,727;0,0001447359;
1033,799;0,0001478747;
1031,870;0,0001374958;
1029,941;7,308816E-5;
1028,012;7,433842E-5;
1026,084;0,000124187;
1024,155;0,0001165599;
1022,226;8,152441E-5;
1020,298;6,495656E-5;
1018,369;7,069159E-5;
1016,440;6,921118E-5;
1014,511;9,376949E-5;
1012,583;9,430276E-5;
1010,654;5,330547E-5;
1008,725;6,201171E-5;
1006,796;5,181808E-5;
1004,868;3,988582E-5;
1002,939;5,309251E-5;
1001,010;5,838881E-5;
999,082;7,597531E-5;
997,153;9,052079E-5;
995,224;7,631101E-5;
993,295;4,782166E-5;
991,367;5,192868E-5;
989,438;4,627596E-5;
987,509;5,071468E-5;
985,580;5,354587E-5;
983,652;5,055197E-5;
981,723;4,950705E-5;
979,794;5,479146E-5;
977,866;6,942076E-5;
975,937;5,279875E-5;
974,008;3,139572E-5;
972,079;4,160246E-5;
970,151;8,977569E-6;
968,222;4,029529E-5;
966,293;2,84912E-5;
964,364;5,269569E-5;
962,436;5,527904E-5;
960,507;7,131499E-5;
958,578;6,762083E-5;
956,650;4,317467E-5;
954,721;7,635021E-5;
952,792;0,0001115167;
950,863;9,279957E-5;
948,935;5,871683E-5;
947,006;5,254508E-5;
945,077;5,681918E-5;
943,148;5,895588E-5;
941,220;7,009861E-5;
939,291;7,1539E-5;
937,362;6,81681E-5;
935,434;5,125039E-5;
933,505;4,588972E-5;
931,576;3,490658E-5;
929,647;3,727597E-5;
927,719;6,430746E-5;
925,790;2,877617E-5;
923,861;3,747096E-5;
921,932;8,149053E-5;
920,004;8,358047E-5;
918,075;9,559717E-5;
916,146;0,0001110654;
914,217;0,0001182663;
912,289;8,945112E-5;
910,360;3,921483E-5;
908,431;9,949344E-5;
906,503;0,0001381627;
904,574;0,0001257626;
902,645;9,159604E-5;
900,716;6,031246E-5;
898,788;4,533932E-5;
896,859;2,867726E-5;
894,930;5,837136E-5;
893,001;8,893506E-5;
891,073;8,482314E-5;
889,144;3,661044E-5;
887,215;6,864449E-5;
885,287;7,564425E-5;
883,358;3,363135E-5;
881,429;7,169232E-5;
879,500;0,0001079314;
877,572;9,659497E-5;
875,643;8,38285E-5;
873,714;7,758687E-5;
871,785;5,86456E-5;
869,857;4,70445E-5;
867,928;4,562645E-5;
865,999;4,583374E-5;
864,071;3,872112E-5;
862,142;5,932854E-5;
860,213;0,0001165473;
858,284;0,0001065568;
856,356;5,455752E-5;
854,427;9,591854E-5;
852,498;0,0001250717;
850,569;9,727322E-5;
848,641;5,55193E-5;
846,712;7,170734E-5;
844,783;0,000101395;
842,855;8,35827E-5;
840,926;5,180745E-5;
838,997;0,0001185854;
837,068;0,000138673;
835,140;0,0001215382;
833,211;0,0001194612;
831,282;0,0001279145;
829,353;0,0001556287;
827,425;0,0002067564;
825,496;0,000189318;
823,567;0,0001027065;
821,639;4,408242E-5;
819,710;6,245116E-5;
817,781;5,027656E-5;
815,852;4,694221E-5;
813,924;8,531291E-5;
811,995;6,604617E-5;
810,066;7,663963E-5;
808,137;0,0001120349;
806,209;0,0001194109;
804,280;0,0001282687;
802,351;0,0001465185;
800,422;0,0001256051;
798,494;9,697816E-5;
796,565;9,235105E-5;
794,636;0,0001019703;
792,708;0,0001080261;
790,779;8,174618E-5;
788,850;6,573736E-5;
786,921;0,0001073789;
784,993;0,0001291189;
783,064;0,0001477206;
781,135;9,639069E-5;
779,206;5,350167E-5;
777,278;5,252002E-5;
775,349;5,783582E-5;
773,420;0,0001233105;
771,492;0,0001508934;
769,563;9,843903E-5;
767,634;6,016681E-5;
765,705;9,608861E-5;
763,777;7,097487E-5;
761,848;8,222795E-5;
759,919;0,0001008187;
757,990;0,0001083874;
756,062;0,0001467572;
754,133;0,0001369816;
752,204;0,0001232087;
750,276;0,0001083377;
748,347;0,0001236248;
746,418;0,0001216295;
744,489;9,009004E-5;
742,561;0,000136113;
740,632;0,0001352066;
738,703;0,0001247164;
736,774;0,0001314772;
734,846;0,0001561002;
732,917;0,0001113425;
730,988;4,531478E-5;
729,060;0,000156246;
727,131;0,0001747451;
725,202;0,0001391657;
723,273;8,763755E-5;
721,345;6,584472E-5;
719,416;9,993479E-5;
717,487;0,0001706534;
715,558;0,0002120074;
713,630;0,0001779721;
711,701;0,000124744;
709,772;0,0001046489;
707,843;0,0001183431;
705,915;0,0001548136;
703,986;0,0001553124;
702,057;0,0001199453;
700,129;0,0001371613;
698,200;0,0001221912;
696,271;0,0001240064;
694,342;0,000171252;
692,414;0,0002105348;
690,485;0,0002122071;
688,556;0,0001928364;
686,627;0,0001488147;
684,699;0,0001013577;
682,770;0,0001409345;
680,841;0,0001299358;
678,913;0,0001197845;
676,984;0,0001120112;
675,055;8,462074E-5;
673,126;0,0001248956;
671,198;0,0002115346;
669,269;0,0003383731;
667,340;0,0003183808;
665,411;0,0001413541;
663,483;0,0001057602;
661,554;9,963592E-5;
659,625;9,526747E-5;
657,697;0,0001434216;
655,768;0,0001501746;
653,839;0,0001830275;
651,910;0,0001829569;
649,982;0,0001599142;
648,053;0,0001691558;
646,124;0,0001815614;
644,195;0,0001970015;
642,267;0,0001275323;
640,338;0,0001590586;
638,409;0,0001221154;
636,481;0,0001962858;
634,552;0,000331998;
632,623;0,0003247238;
630,694;0,0002663191;
628,766;0,0003000867;
626,837;0,0003297799;
624,908;0,0002876488;
622,979;0,0002049796;
621,051;0,0002203344;
619,122;0,0001350943;
617,193;0,0001906076;
615,265;0,0001860703;
613,336;9,623705E-5;
611,407;8,868903E-5;
609,478;0,0001611107;
607,550;0,0001896678;
605,621;0,0002052843;
603,692;0,0001799218;
601,763;0,0001787005;
599,835;0,0002840647;
597,906;0,0003475001;
595,977;0,0003667726;
594,048;0,0003697039;
592,120;0,0003911031;
590,191;0,0003520226;
588,262;0,000307982;
586,334;0,0002667926;
584,405;0,0001345562;
582,476;0,0001441612;
580,547;0,0002309973;
578,619;0,0001358618;
576,690;0,0001097568;
574,761;0,0002853315;
572,832;0,000438054;
570,904;0,0004454789;
568,975;0,0003478876;
567,046;0,0004401197;
565,118;0,0005121155;
563,189;0,0005795237;
561,260;0,0006422504;
559,331;0,0006461635;
557,403;0,0006940982;
555,474;0,0006365392;
553,545;0,0003368943;
551,616;0,0003619413;
549,688;0,0005163936;
547,759;0,0005530993;
545,830;0,000367349;
543,902;0,0003251417;
541,973;0,0001684767;
540,044;0,0001465545;
538,115;0,0003201622;
536,187;0,0002954905;
534,258;0,0003581517;
532,329;0,0002874904;
530,400;0,0002332919;
528,472;0,000199678;
526,543;0,0001885509;
524,614;0,0003083847;
522,686;0,000292159;
520,757;0,0004085974;
518,828;0,0003535906;
516,899;0,000155925;
514,971;0,0001126686;
513,042;0,0003374997;
511,113;0,00046403;
509,184;0,0003337082;
507,256;0,0002322396;
505,327;0,0003177275;
503,398;0,0004139791;
501,470;0,0004000748;
499,541;0,0003736803;
497,612;0,000554424;
495,683;0,0003501664;
493,755;8,44392E-5;
491,826;0,0002078966;
489,897;0,0004051242;
487,968;0,0003791701;
486,040;0,0002418622;
484,111;0,0004755123;
482,182;0,000493596;
480,253;0,000455412;
478,325;0,0004797975;
476,396;0,0002638271;
474,467;0,0003959743;
472,539;0,0005398918;
470,610;0,0003901311;
468,681;0,0004503042;
466,752;0,0004647141;
464,824;0,0006321733;
462,895;0,0008406652;
460,966;0,0006351422;
459,037;0,000526286;
457,109;0,0007291748;
455,180;0,0008855889;
453,251;0,001039978;
451,323;0,001063708;
449,394;0,001119989;
447,465;0,001212917;
445,536;0,001088925;
443,608;0,0007541545;
441,679;0,0006878257;
439,750;0,0004347292;
437,821;0,000412286;
435,893;0,0004674461;
433,964;0,000342837;
432,035;0,001029911;
430,107;0,001977552;
428,178;0,002177091;
426,249;0,001662204;
424,320;0,001745159;
422,392;0,001847174;
420,463;0,00114901;
418,534;0,0007321811;
416,605;0,0010809;
414,677;0,00128335;
412,748;0,001383484;
410,819;0,002075755;
408,891;0,002030027;
406,962;0,00193076;
405,033;0,001849038;
403,104;0,002304515;
401,176;0,002754927;
399,247;0,003852898;
397,318;0,004143321;
395,389;0,002957609;
393,461;0,002707219;
391,532;0,0035622;
389,603;0,005162086;
387,675;0,005438491;
385,746;0,003903996;
383,817;0,002284209;
381,888;0,00432274;
379,960;0,005329411;
378,031;0,00473173;
376,102;0,005714347;
374,173;0,006587873;
