,2,
Wavenumbers [1/cm],Transmittance,
7496.969,0.1197858,
7495.040,0.1211989,
7493.112,0.1206632,
7491.183,0.1187909,
7489.254,0.117745,
7487.326,0.1187336,
7485.397,0.1202441,
7483.468,0.1207095,
7481.539,0.1207014,
7479.611,0.1208147,
7477.682,0.1206794,
7475.753,0.1198898,
7473.824,0.1187283,
7471.896,0.1181828,
7469.967,0.1185927,
7468.038,0.1191922,
7466.110,0.1191688,
7464.181,0.118858,
7462.252,0.1190299,
7460.323,0.1194467,
7458.395,0.1199966,
7456.466,0.12072,
7454.537,0.1208758,
7452.608,0.1202686,
7450.680,0.1194301,
7448.751,0.1184829,
7446.822,0.1177726,
7444.893,0.1178352,
7442.965,0.1181024,
7441.036,0.1181074,
7439.107,0.1182474,
7437.179,0.1183483,
7435.250,0.1181161,
7433.321,0.1177999,
7431.392,0.1174183,
7429.464,0.1169707,
7427.535,0.1165444,
7425.606,0.1157706,
7423.677,0.1149235,
7421.749,0.1147638,
7419.820,0.1150075,
7417.891,0.1152103,
7415.963,0.1152544,
7414.034,0.115149,
7412.105,0.1150838,
7410.176,0.114829,
7408.248,0.1143062,
7406.319,0.1139469,
7404.390,0.1137934,
7402.461,0.1132853,
7400.533,0.1124479,
7398.604,0.1121218,
7396.675,0.1123311,
7394.747,0.1122095,
7392.818,0.1117088,
7390.889,0.1115033,
7388.960,0.1114468,
7387.032,0.1110391,
7385.103,0.1103781,
7383.174,0.1098633,
7381.245,0.1100087,
7379.317,0.1103942,
7377.388,0.1099885,
7375.459,0.1092131,
7373.531,0.1091809,
7371.602,0.1096541,
7369.673,0.109717,
7367.744,0.1091068,
7365.816,0.1081775,
7363.887,0.1077669,
7361.958,0.1081281,
7360.029,0.1083299,
7358.101,0.1079022,
7356.172,0.1073188,
7354.243,0.1070803,
7352.314,0.1071737,
7350.386,0.1071652,
7348.457,0.1070346,
7346.528,0.1071485,
7344.600,0.1073166,
7342.671,0.1072597,
7340.742,0.1074235,
7338.813,0.1079537,
7336.885,0.1082627,
7334.956,0.1080601,
7333.027,0.1077003,
7331.098,0.1076021,
7329.170,0.1075549,
7327.241,0.1073031,
7325.312,0.107313,
7323.384,0.1077876,
7321.455,0.1078829,
7319.526,0.1072793,
7317.597,0.1069989,
7315.669,0.1073372,
7313.740,0.1077561,
7311.811,0.1082495,
7309.882,0.1084192,
7307.954,0.1078419,
7306.025,0.1072785,
7304.096,0.107367,
7302.168,0.1076762,
7300.239,0.1077887,
7298.310,0.1078758,
7296.381,0.1080156,
7294.453,0.1081128,
7292.524,0.1081956,
7290.595,0.1082622,
7288.666,0.1083205,
7286.738,0.1084065,
7284.809,0.1086014,
7282.880,0.1089199,
7280.952,0.1092077,
7279.023,0.109426,
7277.094,0.1096443,
7275.165,0.1097907,
7273.237,0.1096236,
7271.308,0.109133,
7269.379,0.1088328,
7267.450,0.1090078,
7265.522,0.1093471,
7263.593,0.1094419,
7261.664,0.1091028,
7259.736,0.1087189,
7257.807,0.1087751,
7255.878,0.1090905,
7253.949,0.1093548,
7252.021,0.1095182,
7250.092,0.1095892,
7248.163,0.109578,
7246.234,0.1095685,
7244.306,0.1097872,
7242.377,0.1102575,
7240.448,0.110649,
7238.519,0.1107656,
7236.591,0.1107096,
7234.662,0.1106585,
7232.733,0.1107677,
7230.805,0.1110503,
7228.876,0.11125,
7226.947,0.1111815,
7225.018,0.1111167,
7223.090,0.111488,
7221.161,0.1121067,
7219.232,0.1122963,
7217.303,0.111986,
7215.375,0.1117666,
7213.446,0.1118311,
7211.517,0.1118392,
7209.589,0.111758,
7207.660,0.1117671,
7205.731,0.1117446,
7203.802,0.1117044,
7201.874,0.1117413,
7199.945,0.1117408,
7198.016,0.1118373,
7196.087,0.1119573,
7194.159,0.1118441,
7192.230,0.1118419,
7190.301,0.1120839,
7188.373,0.1124091,
7186.444,0.1128565,
7184.515,0.1130402,
7182.586,0.1127243,
7180.658,0.1122466,
7178.729,0.1117633,
7176.800,0.1112355,
7174.871,0.1108283,
7172.943,0.111005,
7171.014,0.1116551,
7169.085,0.1119655,
7167.157,0.111946,
7165.228,0.1120919,
7163.299,0.1120834,
7161.370,0.1116782,
7159.442,0.1113438,
7157.513,0.1113723,
7155.584,0.1116787,
7153.655,0.1118877,
7151.727,0.1116712,
7149.798,0.1114921,
7147.869,0.1117321,
7145.941,0.1119323,
7144.012,0.1118164,
7142.083,0.1117,
7140.154,0.1117123,
7138.226,0.1115673,
7136.297,0.1113216,
7134.368,0.1113323,
7132.439,0.1116384,
7130.511,0.1119497,
7128.582,0.1119448,
7126.653,0.111909,
7124.724,0.1122533,
7122.796,0.1125942,
7120.867,0.1125254,
7118.938,0.1122842,
7117.010,0.1121235,
7115.081,0.111914,
7113.152,0.1116588,
7111.223,0.1116405,
7109.295,0.1119538,
7107.366,0.1122952,
7105.437,0.1123216,
7103.508,0.1121809,
7101.580,0.1121261,
7099.651,0.1121938,
7097.722,0.1124288,
7095.794,0.1125458,
7093.865,0.1122291,
7091.936,0.111804,
7090.007,0.1117451,
7088.079,0.1119918,
7086.150,0.1119591,
7084.221,0.111447,
7082.292,0.1112325,
7080.364,0.1117445,
7078.435,0.1120887,
7076.506,0.1115357,
7074.578,0.1107112,
7072.649,0.1105566,
7070.720,0.1109865,
7068.791,0.1111921,
7066.863,0.1110722,
7064.934,0.1112295,
7063.005,0.1115721,
7061.076,0.1115594,
7059.148,0.1112106,
7057.219,0.1108361,
7055.290,0.1107085,
7053.362,0.110855,
7051.433,0.1109528,
7049.504,0.1108399,
7047.575,0.1105292,
7045.647,0.1100391,
7043.718,0.1096243,
7041.789,0.1095614,
7039.860,0.1096575,
7037.932,0.109465,
7036.003,0.1090285,
7034.074,0.1088833,
7032.146,0.1092428,
7030.217,0.1095965,
7028.288,0.1093139,
7026.359,0.1084902,
7024.431,0.1077636,
7022.502,0.1074701,
7020.573,0.1074788,
7018.644,0.1076345,
7016.716,0.1078734,
7014.787,0.1080364,
7012.858,0.1078925,
7010.929,0.1073915,
7009.001,0.106799,
7007.072,0.1064046,
7005.143,0.1061817,
7003.215,0.1060125,
7001.286,0.1059688,
6999.357,0.1060298,
6997.428,0.106068,
6995.500,0.1060521,
6993.571,0.1057019,
6991.642,0.1048137,
6989.713,0.1040603,
6987.785,0.1040792,
6985.856,0.1043746,
6983.927,0.1043328,
6981.999,0.1040099,
6980.070,0.1036627,
6978.141,0.1035776,
6976.212,0.1037273,
6974.284,0.1038483,
6972.355,0.1039192,
6970.426,0.1038432,
6968.497,0.1035534,
6966.569,0.1032447,
6964.640,0.1030156,
6962.711,0.1029124,
6960.783,0.1029418,
6958.854,0.1029686,
6956.925,0.1029497,
6954.996,0.1028889,
6953.068,0.1026928,
6951.139,0.1023545,
6949.210,0.1020868,
6947.281,0.1021859,
6945.353,0.1025719,
6943.424,0.1027986,
6941.495,0.1028087,
6939.567,0.1027691,
6937.638,0.1025004,
6935.709,0.1022216,
6933.780,0.1025044,
6931.852,0.1029489,
6929.923,0.1028594,
6927.994,0.1025942,
6926.065,0.1025686,
6924.137,0.10252,
6922.208,0.1024521,
6920.279,0.1026496,
6918.350,0.1029911,
6916.422,0.1032103,
6914.493,0.1032054,
6912.564,0.1030674,
6910.636,0.1031274,
6908.707,0.103441,
6906.778,0.1036911,
6904.849,0.1037894,
6902.921,0.1039123,
6900.992,0.1041443,
6899.063,0.1043444,
6897.134,0.1044646,
6895.206,0.1046581,
6893.277,0.1048003,
6891.348,0.1046539,
6889.420,0.1044241,
6887.491,0.1045186,
6885.562,0.1049596,
6883.633,0.1053476,
6881.705,0.1054757,
6879.776,0.1055972,
6877.847,0.1057454,
6875.918,0.1057351,
6873.990,0.1057647,
6872.061,0.1059045,
6870.132,0.1058889,
6868.204,0.105725,
6866.275,0.1056426,
6864.346,0.1056947,
6862.417,0.1058275,
6860.489,0.1060697,
6858.560,0.1063136,
6856.631,0.1064523,
6854.702,0.1064957,
6852.774,0.1063343,
6850.845,0.1061615,
6848.916,0.1062202,
6846.988,0.1062255,
6845.059,0.1060889,
6843.130,0.1061372,
6841.201,0.1063809,
6839.273,0.1064952,
6837.344,0.1062784,
6835.415,0.1058851,
6833.486,0.1057385,
6831.558,0.1059141,
6829.629,0.1059817,
6827.700,0.1058088,
6825.772,0.1057733,
6823.843,0.1060111,
6821.914,0.1061782,
6819.985,0.1060326,
6818.057,0.1057393,
6816.128,0.1056152,
6814.199,0.1055979,
6812.270,0.1053706,
6810.342,0.1050811,
6808.413,0.1050089,
6806.484,0.1051065,
6804.555,0.1052563,
6802.627,0.1053071,
6800.698,0.1051931,
6798.769,0.1050426,
6796.841,0.1049214,
6794.912,0.1047321,
6792.983,0.1045264,
6791.054,0.1044387,
6789.126,0.1044465,
6787.197,0.1045578,
6785.268,0.1046654,
6783.339,0.1046662,
6781.411,0.1046923,
6779.482,0.1048413,
6777.553,0.1050984,
6775.625,0.1052433,
6773.696,0.1051063,
6771.767,0.1048768,
6769.838,0.1047147,
6767.910,0.1045304,
6765.981,0.1043103,
6764.052,0.1042631,
6762.123,0.1044853,
6760.195,0.1048957,
6758.266,0.1052767,
6756.337,0.1053974,
6754.409,0.1053833,
6752.480,0.1053421,
6750.551,0.1051738,
6748.622,0.1049993,
6746.694,0.1049642,
6744.765,0.1050024,
6742.836,0.1050218,
6740.907,0.1050193,
6738.979,0.1050904,
6737.050,0.1052874,
6735.121,0.1055512,
6733.193,0.1058501,
6731.264,0.1061796,
6729.335,0.1064696,
6727.406,0.1064959,
6725.478,0.1062135,
6723.549,0.1060891,
6721.620,0.1062907,
6719.691,0.106506,
6717.763,0.1066905,
6715.834,0.1067812,
6713.905,0.1066779,
6711.977,0.1066101,
6710.048,0.1065732,
6708.119,0.1064471,
6706.190,0.1065189,
6704.262,0.1068252,
6702.333,0.107055,
6700.404,0.1071795,
6698.475,0.107247,
6696.547,0.1072014,
6694.618,0.1070746,
6692.689,0.1070583,
6690.760,0.1073036,
6688.832,0.1076296,
6686.903,0.1077647,
6684.974,0.1076255,
6683.046,0.1073483,
6681.117,0.1071844,
6679.188,0.1071977,
6677.259,0.1072623,
6675.331,0.1072696,
6673.402,0.1071818,
6671.473,0.1070853,
6669.544,0.10709,
6667.616,0.1070836,
6665.687,0.1069857,
6663.758,0.1069688,
6661.830,0.1070383,
6659.901,0.107038,
6657.972,0.1070481,
6656.043,0.1071771,
6654.115,0.1071836,
6652.186,0.1068501,
6650.257,0.1063937,
6648.328,0.1060554,
6646.400,0.1059266,
6644.471,0.1060143,
6642.542,0.1060412,
6640.614,0.1057952,
6638.685,0.1055254,
6636.756,0.1054842,
6634.827,0.1054116,
6632.899,0.1050464,
6630.970,0.1047298,
6629.041,0.1047371,
6627.112,0.1047604,
6625.184,0.1045165,
6623.255,0.1041218,
6621.326,0.1038416,
6619.398,0.1037689,
6617.469,0.1037035,
6615.540,0.1034859,
6613.611,0.1032864,
6611.683,0.1031619,
6609.754,0.1028601,
6607.825,0.1024294,
6605.896,0.1021601,
6603.968,0.102018,
6602.039,0.1018499,
6600.110,0.1016785,
6598.182,0.1015674,
6596.253,0.1014646,
6594.324,0.1012271,
6592.395,0.10087,
6590.467,0.1005767,
6588.538,0.1004245,
6586.609,0.1003394,
6584.680,0.1002671,
6582.752,0.1001919,
6580.823,0.1002111,
6578.894,0.1003815,
6576.965,0.1003519,
6575.037,0.1000027,
6573.108,0.09977489,
6571.179,0.09969835,
6569.251,0.09944662,
6567.322,0.09917463,
6565.393,0.09918007,
6563.464,0.09932618,
6561.536,0.09938358,
6559.607,0.09937439,
6557.678,0.09936889,
6555.749,0.09935,
6553.821,0.09940515,
6551.892,0.09968875,
6549.963,0.1000051,
6548.035,0.1000187,
6546.106,0.09976216,
6544.177,0.09955627,
6542.248,0.09966182,
6540.320,0.0999169,
6538.391,0.1000584,
6536.462,0.1001844,
6534.533,0.1003946,
6532.605,0.1005686,
6530.676,0.100561,
6528.747,0.1004764,
6526.819,0.1005879,
6524.890,0.1008394,
6522.961,0.1009464,
6521.032,0.1009197,
6519.104,0.101008,
6517.175,0.1012262,
6515.246,0.1014246,
6513.317,0.1016342,
6511.389,0.1018467,
6509.460,0.1019768,
6507.531,0.102138,
6505.603,0.1023981,
6503.674,0.1026945,
6501.745,0.1029769,
6499.816,0.1031271,
6497.888,0.1032108,
6495.959,0.1033826,
6494.030,0.1035237,
6492.101,0.1036361,
6490.173,0.103822,
6488.244,0.1038597,
6486.315,0.1036722,
6484.386,0.1036815,
6482.458,0.1040153,
6480.529,0.1041649,
6478.600,0.103996,
6476.672,0.1038831,
6474.743,0.1039048,
6472.814,0.1039663,
6470.885,0.1040417,
6468.957,0.1041137,
6467.028,0.1042535,
6465.099,0.1044669,
6463.170,0.1046076,
6461.242,0.1045595,
6459.313,0.104376,
6457.384,0.1042855,
6455.456,0.1043646,
6453.527,0.1044067,
6451.598,0.1043296,
6449.669,0.1042164,
6447.741,0.1041194,
6445.812,0.1040643,
6443.883,0.1040059,
6441.954,0.1039358,
6440.026,0.1039372,
6438.097,0.1039917,
6436.168,0.1039402,
6434.240,0.1037226,
6432.311,0.1034995,
6430.382,0.1034197,
6428.453,0.1034188,
6426.525,0.1033498,
6424.596,0.103224,
6422.667,0.1031223,
6420.738,0.1030507,
6418.810,0.1030446,
6416.881,0.1030847,
6414.952,0.103011,
6413.024,0.1027271,
6411.095,0.1023612,
6409.166,0.1020663,
6407.237,0.1018549,
6405.309,0.1017171,
6403.380,0.1016019,
6401.451,0.1014556,
6399.522,0.1013361,
6397.594,0.1013112,
6395.665,0.101318,
6393.736,0.1013048,
6391.808,0.1013704,
6389.879,0.1014282,
6387.950,0.101295,
6386.021,0.1010963,
6384.093,0.1009424,
6382.164,0.1007333,
6380.235,0.1004576,
6378.306,0.1002313,
6376.378,0.1001062,
6374.449,0.1000598,
6372.520,0.1000742,
6370.591,0.1001042,
6368.663,0.1000926,
6366.734,0.1000464,
6364.805,0.1000917,
6362.877,0.1002631,
6360.948,0.1003988,
6359.019,0.1004469,
6357.090,0.1004641,
6355.162,0.1004499,
6353.233,0.10042,
6351.304,0.1004362,
6349.375,0.1005116,
6347.447,0.1005847,
6345.518,0.100686,
6343.589,0.1008608,
6341.661,0.1010292,
6339.732,0.1011348,
6337.803,0.101158,
6335.874,0.1011139,
6333.946,0.1011769,
6332.017,0.101436,
6330.088,0.1016879,
6328.159,0.1017913,
6326.231,0.1018362,
6324.302,0.1019097,
6322.373,0.1020026,
6320.445,0.1020727,
6318.516,0.1021657,
6316.587,0.102437,
6314.658,0.1028557,
6312.730,0.1030051,
6310.801,0.1027362,
6308.872,0.1025465,
6306.943,0.102746,
6305.015,0.1031009,
6303.086,0.1033092,
6301.157,0.103365,
6299.229,0.1034651,
6297.300,0.1035414,
6295.371,0.1034663,
6293.442,0.103491,
6291.514,0.1037011,
6289.585,0.103736,
6287.656,0.1035674,
6285.727,0.1035221,
6283.799,0.1036381,
6281.870,0.1037347,
6279.941,0.1036675,
6278.013,0.1035609,
6276.084,0.1035492,
6274.155,0.1034584,
6272.226,0.1032996,
6270.298,0.1031979,
6268.369,0.1031016,
6266.440,0.1030026,
6264.511,0.1028962,
6262.583,0.1027906,
6260.654,0.1027632,
6258.725,0.1027968,
6256.796,0.1027286,
6254.868,0.10248,
6252.939,0.1021914,
6251.010,0.1020674,
6249.082,0.102098,
6247.153,0.1020407,
6245.224,0.101824,
6243.295,0.1015767,
6241.367,0.1013606,
6239.438,0.101201,
6237.509,0.1011433,
6235.580,0.1010897,
6233.652,0.100831,
6231.723,0.1005126,
6229.794,0.1003824,
6227.866,0.1002483,
6225.937,0.09994603,
6224.008,0.09959222,
6222.079,0.09922563,
6220.151,0.09885103,
6218.222,0.09858108,
6216.293,0.09835903,
6214.364,0.09809072,
6212.436,0.09794964,
6210.507,0.0978597,
6208.578,0.09760526,
6206.650,0.09745459,
6204.721,0.09759173,
6202.792,0.09768344,
6200.863,0.09745887,
6198.935,0.09702624,
6197.006,0.09657272,
6195.077,0.09621676,
6193.148,0.0960958,
6191.220,0.09616733,
6189.291,0.09614979,
6187.362,0.09590805,
6185.434,0.09560408,
6183.505,0.09540155,
6181.576,0.09531063,
6179.647,0.09534984,
6177.719,0.09545854,
6175.790,0.09548394,
6173.861,0.09549892,
6171.932,0.09558486,
6170.004,0.09558969,
6168.075,0.09549943,
6166.146,0.09547873,
6164.218,0.09549255,
6162.289,0.09540637,
6160.360,0.09533037,
6158.431,0.09541113,
6156.503,0.09554808,
6154.574,0.09567022,
6152.645,0.09587119,
6150.716,0.09606814,
6148.788,0.09606842,
6146.859,0.09593456,
6144.930,0.09588094,
6143.001,0.09605633,
6141.073,0.09637959,
6139.144,0.09659689,
6137.215,0.09669465,
6135.287,0.09682008,
6133.358,0.09699228,
6131.429,0.09719957,
6129.500,0.09746803,
6127.572,0.09775992,
6125.643,0.09791943,
6123.714,0.0979322,
6121.785,0.09799462,
6119.857,0.0981968,
6117.928,0.09850241,
6115.999,0.09880088,
6114.071,0.09898581,
6112.142,0.0991809,
6110.213,0.09948374,
6108.284,0.09971712,
6106.356,0.0997929,
6104.427,0.09985957,
6102.498,0.1000041,
6100.569,0.1001943,
6098.641,0.1003995,
6096.712,0.1005846,
6094.783,0.1007795,
6092.855,0.1009728,
6090.926,0.1010479,
6088.997,0.1011463,
6087.068,0.1013932,
6085.140,0.1015332,
6083.211,0.1015659,
6081.282,0.1017235,
6079.353,0.1018016,
6077.425,0.1016217,
6075.496,0.1014921,
6073.567,0.1015723,
6071.639,0.1016411,
6069.710,0.1015633,
6067.781,0.1014448,
6065.852,0.1014125,
6063.924,0.101401,
6061.995,0.1013517,
6060.066,0.1013317,
6058.137,0.1013017,
6056.209,0.1011742,
6054.280,0.1009705,
6052.351,0.1008248,
6050.423,0.1007828,
6048.494,0.1006725,
6046.565,0.1004543,
6044.636,0.1002731,
6042.708,0.1001353,
6040.779,0.09999587,
6038.850,0.09986532,
6036.921,0.09967751,
6034.993,0.09935924,
6033.064,0.09903597,
6031.135,0.0988607,
6029.206,0.09864782,
6027.278,0.09824619,
6025.349,0.09797356,
6023.420,0.09802888,
6021.492,0.09810348,
6019.563,0.09783941,
6017.634,0.09733212,
6015.705,0.0970092,
6013.777,0.09694155,
6011.848,0.09683291,
6009.919,0.09661061,
6007.990,0.09638472,
6006.062,0.09609947,
6004.133,0.0956814,
6002.204,0.09527686,
6000.276,0.09499908,
5998.347,0.09479061,
5996.418,0.09460362,
5994.489,0.0943839,
5992.561,0.09412455,
5990.632,0.09395226,
5988.703,0.09384105,
5986.774,0.09360837,
5984.846,0.09329476,
5982.917,0.09306734,
5980.988,0.09296627,
5979.060,0.09290528,
5977.131,0.09279605,
5975.202,0.09264156,
5973.273,0.09244498,
5971.345,0.09229959,
5969.416,0.09228945,
5967.487,0.09228595,
5965.558,0.09226342,
5963.630,0.09232684,
5961.701,0.09245226,
5959.772,0.09257545,
5957.844,0.09268571,
5955.915,0.09276082,
5953.986,0.09280153,
5952.057,0.09289178,
5950.129,0.09302071,
5948.200,0.0930808,
5946.271,0.09314045,
5944.342,0.09332921,
5942.414,0.0935514,
5940.485,0.0936757,
5938.556,0.09378076,
5936.627,0.09393196,
5934.699,0.09406626,
5932.770,0.094257,
5930.841,0.094606,
5928.913,0.09495376,
5926.984,0.09516276,
5925.055,0.0952872,
5923.126,0.09534653,
5921.198,0.09542641,
5919.269,0.09569354,
5917.340,0.09604762,
5915.411,0.09619353,
5913.483,0.09613758,
5911.554,0.09616451,
5909.625,0.096352,
5907.697,0.09660416,
5905.768,0.09689615,
5903.839,0.09712375,
5901.910,0.09714711,
5899.982,0.09709097,
5898.053,0.09714784,
5896.124,0.09727744,
5894.195,0.09743179,
5892.267,0.09761999,
5890.338,0.09775148,
5888.409,0.09777035,
5886.481,0.09771625,
5884.552,0.09764325,
5882.623,0.0975768,
5880.694,0.09749439,
5878.766,0.09744265,
5876.837,0.09749292,
5874.908,0.09757062,
5872.979,0.09755784,
5871.051,0.09742743,
5869.122,0.09724295,
5867.193,0.09701039,
5865.265,0.09665267,
5863.336,0.09635403,
5861.407,0.0963536,
5859.478,0.09641027,
5857.550,0.09624821,
5855.621,0.09598546,
5853.692,0.09570105,
5851.763,0.09538011,
5849.835,0.09514035,
5847.906,0.09502676,
5845.977,0.09494205,
5844.049,0.09477139,
5842.120,0.09451923,
5840.191,0.09430859,
5838.262,0.09405614,
5836.334,0.0936316,
5834.405,0.09328063,
5832.476,0.0931917,
5830.547,0.09310772,
5828.619,0.09283289,
5826.690,0.09251525,
5824.761,0.09229085,
5822.832,0.09210271,
5820.904,0.09184369,
5818.975,0.09147156,
5817.046,0.09107938,
5815.118,0.09081794,
5813.189,0.0906551,
5811.260,0.09049229,
5809.331,0.09036904,
5807.403,0.09024506,
5805.474,0.08998903,
5803.545,0.08967301,
5801.616,0.08947843,
5799.688,0.08937571,
5797.759,0.08922904,
5795.830,0.08904079,
5793.902,0.08887254,
5791.973,0.08876714,
5790.044,0.08873811,
5788.115,0.08870653,
5786.187,0.08857699,
5784.258,0.08841302,
5782.329,0.08833652,
5780.400,0.08834764,
5778.472,0.08843197,
5776.543,0.08852673,
5774.614,0.08854039,
5772.686,0.08851776,
5770.757,0.08846797,
5768.828,0.08835999,
5766.899,0.0883102,
5764.971,0.08843701,
5763.042,0.08862925,
5761.113,0.08869297,
5759.184,0.08863287,
5757.256,0.08855386,
5755.327,0.08853404,
5753.398,0.0886244,
5751.470,0.08876646,
5749.541,0.08892531,
5747.612,0.08913496,
5745.683,0.08924996,
5743.755,0.08920329,
5741.826,0.08926024,
5739.897,0.08954614,
5737.968,0.08993401,
5736.040,0.09029326,
5734.111,0.09053586,
5732.182,0.09071344,
5730.254,0.09093268,
5728.325,0.09123504,
5726.396,0.09156643,
5724.467,0.09178277,
5722.539,0.09188862,
5720.610,0.09207153,
5718.681,0.09240787,
5716.752,0.09277342,
5714.824,0.09306757,
5712.895,0.09331326,
5710.966,0.09352764,
5709.037,0.09374709,
5707.109,0.09401692,
5705.180,0.09429759,
5703.251,0.0945506,
5701.323,0.09472476,
5699.394,0.09485895,
5697.465,0.09513267,
5695.536,0.09543061,
5693.608,0.09556902,
5691.679,0.0957402,
5689.750,0.09598856,
5687.821,0.09613555,
5685.893,0.09621673,
5683.964,0.09630903,
5682.035,0.09644143,
5680.107,0.09663924,
5678.178,0.09673612,
5676.249,0.09660151,
5674.320,0.09637613,
5672.392,0.09617542,
5670.463,0.09605155,
5668.534,0.096061,
5666.605,0.09606888,
5664.677,0.09594037,
5662.748,0.09580107,
5660.819,0.09570699,
5658.891,0.09549183,
5656.962,0.09518135,
5655.033,0.094956,
5653.104,0.09479717,
5651.176,0.09458626,
5649.247,0.09427463,
5647.318,0.09393726,
5645.389,0.09371153,
5643.461,0.09357896,
5641.532,0.09335318,
5639.603,0.09296094,
5637.675,0.09256574,
5635.746,0.09231004,
5633.817,0.09211383,
5631.888,0.09185062,
5629.960,0.09158561,
5628.031,0.09138083,
5626.102,0.09109713,
5624.173,0.09069365,
5622.245,0.09031587,
5620.316,0.08999234,
5618.387,0.08964442,
5616.459,0.08928864,
5614.530,0.08895116,
5612.601,0.08865907,
5610.672,0.08849022,
5608.744,0.08835804,
5606.815,0.08812839,
5604.886,0.0878517,
5602.957,0.08761114,
5601.029,0.08741964,
5599.100,0.08724661,
5597.171,0.0870477,
5595.242,0.08682739,
5593.314,0.08667648,
5591.385,0.08662884,
5589.456,0.0865797,
5587.528,0.08646572,
5585.599,0.08631732,
5583.670,0.08617256,
5581.741,0.08605637,
5579.813,0.08598719,
5577.884,0.08594327,
5575.955,0.08590169,
5574.026,0.0859107,
5572.098,0.08599848,
5570.169,0.08617223,
5568.240,0.08642256,
5566.312,0.08665473,
5564.383,0.08679106,
5562.454,0.08683857,
5560.525,0.08690323,
5558.597,0.08710909,
5556.668,0.0873666,
5554.739,0.08754071,
5552.810,0.08776261,
5550.882,0.08812039,
5548.953,0.08843955,
5547.024,0.0886253,
5545.096,0.08880287,
5543.167,0.08910011,
5541.238,0.08945505,
5539.309,0.08975813,
5537.381,0.09003449,
5535.452,0.09033961,
5533.523,0.09068332,
5531.594,0.09096204,
5529.666,0.09111775,
5527.737,0.09134197,
5525.808,0.09173362,
5523.880,0.09214011,
5521.951,0.09244374,
5520.022,0.09266151,
5518.093,0.09288228,
5516.165,0.0931739,
5514.236,0.09352327,
5512.307,0.093863,
5510.378,0.0941075,
5508.450,0.09426402,
5506.521,0.09444162,
5504.592,0.09464062,
5502.663,0.09478317,
5500.735,0.09492301,
5498.806,0.09512776,
5496.877,0.09530626,
5494.949,0.09541815,
5493.020,0.09561262,
5491.091,0.0958874,
5489.162,0.09603219,
5487.234,0.09601502,
5485.305,0.09596008,
5483.376,0.09597749,
5481.447,0.09611782,
5479.519,0.09621596,
5477.590,0.09610467,
5475.661,0.09592418,
5473.733,0.09584575,
5471.804,0.09583596,
5469.875,0.09580185,
5467.946,0.09567691,
5466.018,0.09546896,
5464.089,0.09526997,
5462.160,0.09512787,
5460.231,0.09495346,
5458.303,0.09462533,
5456.374,0.09422437,
5454.445,0.09393793,
5452.517,0.09372638,
5450.588,0.093449,
5448.659,0.09311646,
5446.730,0.09275923,
5444.802,0.09234607,
5442.873,0.09193239,
5440.944,0.09163998,
5439.015,0.09142219,
5437.087,0.09109882,
5435.158,0.09062064,
5433.229,0.09010607,
5431.301,0.08969265,
5429.372,0.08937991,
5427.443,0.0890642,
5425.514,0.08868517,
5423.586,0.08823968,
5421.657,0.08775532,
5419.728,0.08727637,
5417.799,0.08690141,
5415.871,0.08669583,
5413.942,0.08651186,
5412.013,0.08618613,
5410.085,0.08578159,
5408.156,0.0854115,
5406.227,0.08509921,
5404.298,0.08487212,
5402.370,0.08471543,
5400.441,0.08450005,
5398.512,0.08416609,
5396.583,0.08382865,
5394.655,0.08359656,
5392.726,0.08340642,
5390.797,0.08317046,
5388.868,0.08299376,
5386.940,0.08296613,
5385.011,0.0829389,
5383.082,0.08284798,
5381.154,0.08284297,
5379.225,0.08292269,
5377.296,0.0829338,
5375.367,0.08285926,
5373.439,0.08286913,
5371.510,0.08303856,
5369.581,0.08316502,
5367.652,0.08316708,
5365.724,0.08322109,
5363.795,0.08341878,
5361.866,0.08371782,
5359.938,0.08400235,
5358.009,0.08420126,
5356.080,0.08439223,
5354.151,0.08466138,
5352.223,0.08499861,
5350.294,0.08532672,
5348.365,0.08560894,
5346.436,0.08588553,
5344.508,0.08620156,
5342.579,0.08654441,
5340.650,0.08685818,
5338.722,0.08718047,
5336.793,0.08757341,
5334.864,0.08794622,
5332.935,0.08825764,
5331.007,0.0886114,
5329.078,0.08900499,
5327.149,0.08933359,
5325.220,0.08957619,
5323.292,0.08983418,
5321.363,0.09019766,
5319.434,0.0905692,
5317.506,0.09082548,
5315.577,0.09101083,
5313.648,0.09117993,
5311.719,0.09136871,
5309.791,0.09163642,
5307.862,0.09192558,
5305.933,0.09213835,
5304.004,0.09229259,
5302.076,0.09241608,
5300.147,0.09253097,
5298.218,0.09270296,
5296.290,0.09287027,
5294.361,0.09290756,
5292.432,0.0928788,
5290.503,0.09287877,
5288.575,0.09288412,
5286.646,0.09289768,
5284.717,0.09290274,
5282.788,0.09283947,
5280.860,0.09274105,
5278.931,0.09265155,
5277.002,0.09254644,
5275.073,0.09240548,
5273.145,0.09222703,
5271.216,0.09203377,
5269.287,0.09185165,
5267.359,0.09166682,
5265.430,0.09146654,
5263.501,0.09126841,
5261.572,0.09107698,
5259.644,0.09083885,
5257.715,0.09050573,
5255.786,0.09013133,
5253.857,0.08980537,
5251.929,0.089513,
5250.000,0.089153,
5248.071,0.08872428,
5246.143,0.08834257,
5244.214,0.08800803,
5242.285,0.08762877,
5240.356,0.08721488,
5238.428,0.08680567,
5236.499,0.08638148,
5234.570,0.08594105,
5232.641,0.08551565,
5230.713,0.08510002,
5228.784,0.08467642,
5226.855,0.08427551,
5224.927,0.08392607,
5222.998,0.08360807,
5221.069,0.0832843,
5219.140,0.08293408,
5217.212,0.08257581,
5215.283,0.08223318,
5213.354,0.08189018,
5211.425,0.08155643,
5209.497,0.08129384,
5207.568,0.08108053,
5205.639,0.08084602,
5203.711,0.08062979,
5201.782,0.08046386,
5199.853,0.08030529,
5197.924,0.0801307,
5195.996,0.07990602,
5194.067,0.07965776,
5192.138,0.0795154,
5190.209,0.07950742,
5188.281,0.07953779,
5186.352,0.07955126,
5184.423,0.07956522,
5182.495,0.07960378,
5180.566,0.07963023,
5178.637,0.07962303,
5176.708,0.07966781,
5174.780,0.07980081,
5172.851,0.079974,
5170.922,0.08019556,
5168.993,0.08045947,
5167.065,0.08071359,
5165.136,0.0809382,
5163.207,0.08113701,
5161.278,0.08136249,
5159.350,0.08164667,
5157.421,0.08194432,
5155.492,0.08226336,
5153.564,0.08261441,
5151.635,0.08295801,
5149.706,0.08332428,
5147.777,0.08374025,
5145.849,0.08415642,
5143.920,0.08453649,
5141.991,0.08488248,
5140.062,0.08520131,
5138.134,0.08552061,
5136.205,0.08587939,
5134.276,0.08625519,
5132.348,0.08662122,
5130.419,0.08700545,
5128.490,0.08739726,
5126.561,0.08774953,
5124.633,0.08807034,
5122.704,0.08841955,
5120.775,0.08879528,
5118.846,0.08911042,
5116.918,0.08933899,
5114.989,0.08954533,
5113.060,0.08975464,
5111.132,0.0899305,
5109.203,0.09007933,
5107.274,0.09026228,
5105.345,0.09049214,
5103.417,0.09069331,
5101.488,0.09079036,
5099.559,0.09079465,
5097.630,0.09076796,
5095.702,0.0907644,
5093.773,0.09078114,
5091.844,0.09075894,
5089.916,0.09069808,
5087.987,0.09063697,
5086.058,0.09055512,
5084.129,0.09043892,
5082.201,0.0903153,
5080.272,0.09020447,
5078.343,0.09009268,
5076.414,0.08995212,
5074.486,0.0897814,
5072.557,0.08956271,
5070.628,0.08927976,
5068.700,0.08896566,
5066.771,0.08865774,
5064.842,0.08840024,
5062.913,0.08818207,
5060.985,0.08790702,
5059.056,0.08754331,
5057.127,0.08713763,
5055.198,0.08671749,
5053.270,0.08629382,
5051.341,0.08586888,
5049.412,0.08542749,
5047.483,0.08498593,
5045.555,0.08456755,
5043.626,0.08413252,
5041.697,0.08365934,
5039.769,0.08318616,
5037.840,0.08270525,
5035.911,0.08219888,
5033.982,0.08171146,
5032.054,0.08123495,
5030.125,0.08075907,
5028.196,0.08035634,
5026.267,0.07999512,
5024.339,0.07961044,
5022.410,0.0792339,
5020.481,0.07884127,
5018.553,0.07841744,
5016.624,0.07801922,
5014.695,0.0776441,
5012.766,0.07728641,
5010.838,0.07698784,
5008.909,0.07671943,
5006.980,0.07644281,
5005.051,0.0762234,
5003.123,0.07605647,
5001.194,0.07584136,
4999.265,0.07561211,
4997.337,0.07546816,
4995.408,0.07538556,
4993.479,0.07528656,
4991.550,0.07517709,
4989.622,0.0751213,
4987.693,0.07510275,
4985.764,0.07508349,
4983.835,0.0751179,
4981.907,0.07522339,
4979.978,0.0753619,
4978.049,0.07552689,
4976.121,0.07571044,
4974.192,0.07591234,
4972.263,0.07612947,
4970.334,0.07634315,
4968.406,0.0765698,
4966.477,0.0768435,
4964.548,0.07716054,
4962.619,0.07751741,
4960.691,0.07791,
4958.762,0.07824194,
4956.833,0.07848761,
4954.904,0.07879455,
4952.976,0.07919922,
4951.047,0.07959193,
4949.118,0.07995093,
4947.190,0.08033025,
4945.261,0.08074479,
4943.332,0.08118565,
4941.403,0.08163932,
4939.475,0.08207285,
4937.546,0.08246764,
4935.617,0.08283071,
4933.688,0.08315846,
4931.760,0.08345006,
4929.831,0.0837792,
4927.902,0.084207,
4925.974,0.08464006,
4924.045,0.08499061,
4922.116,0.08530305,
4920.187,0.08559819,
4918.259,0.085833,
4916.330,0.08601633,
4914.401,0.08619151,
4912.472,0.08636925,
4910.544,0.08655994,
4908.615,0.08674197,
4906.686,0.08686043,
4904.758,0.08694368,
4902.829,0.08704168,
4900.900,0.08712023,
4898.971,0.08715423,
4897.043,0.08717135,
4895.114,0.08717314,
4893.185,0.08714797,
4891.256,0.08712183,
4889.328,0.08709495,
4887.399,0.08701337,
4885.470,0.08685055,
4883.542,0.08664747,
4881.613,0.08645026,
4879.684,0.08624812,
4877.755,0.086028,
4875.827,0.08578989,
4873.898,0.08550795,
4871.969,0.08519502,
4870.040,0.08487742,
4868.112,0.08453755,
4866.183,0.08419169,
4864.254,0.08385073,
4862.326,0.08345141,
4860.397,0.08297592,
4858.468,0.08249513,
4856.539,0.08206678,
4854.611,0.08169791,
4852.682,0.08133716,
4850.753,0.08092401,
4848.824,0.08045007,
4846.896,0.07991736,
4844.967,0.07936739,
4843.038,0.07887696,
4841.109,0.07843784,
4839.181,0.07798349,
4837.252,0.0775023,
4835.323,0.07703928,
4833.395,0.07660409,
4831.466,0.07617103,
4829.537,0.07574096,
4827.608,0.07532191,
4825.680,0.07495252,
4823.751,0.07466321,
4821.822,0.07437163,
4819.893,0.07399711,
4817.965,0.0736045,
4816.036,0.07330273,
4814.107,0.07307985,
4812.179,0.07284959,
4810.250,0.07259614,
4808.321,0.07234991,
4806.392,0.07212812,
4804.464,0.07196918,
4802.535,0.0718919,
4800.606,0.07184435,
4798.677,0.071781,
4796.749,0.0717324,
4794.820,0.07174188,
4792.891,0.07175793,
4790.963,0.07172906,
4789.034,0.07175036,
4787.105,0.07189415,
4785.176,0.07207585,
4783.248,0.0722333,
4781.319,0.07239954,
4779.390,0.07259896,
4777.461,0.07283058,
4775.533,0.07307809,
4773.604,0.0733152,
4771.675,0.07356966,
4769.747,0.07387819,
4767.818,0.07418945,
4765.889,0.07447365,
4763.960,0.07480142,
4762.032,0.07519566,
4760.103,0.07558726,
4758.174,0.07593551,
4756.245,0.07627521,
4754.317,0.07667548,
4752.388,0.07713979,
4750.459,0.07758233,
4748.531,0.07796904,
4746.602,0.07832547,
4744.673,0.07863821,
4742.744,0.07892787,
4740.816,0.07926479,
4738.887,0.0796463,
4736.958,0.08000732,
4735.029,0.08032134,
4733.101,0.08062099,
4731.172,0.08092771,
4729.243,0.08123242,
4727.314,0.08154354,
4725.386,0.08184004,
4723.457,0.0820849,
4721.528,0.08229843,
4719.600,0.0824797,
4717.671,0.08261286,
4715.742,0.08274428,
4713.813,0.08289374,
4711.885,0.08302911,
4709.956,0.08314862,
4708.027,0.08324963,
4706.098,0.08329532,
4704.170,0.08327393,
4702.241,0.08320604,
4700.312,0.08310619,
4698.384,0.08296902,
4696.455,0.08277278,
4694.526,0.08250806,
4692.597,0.082188,
4690.669,0.08183613,
4688.740,0.08146588,
4686.811,0.08106354,
4684.882,0.08064194,
4682.954,0.08024794,
4681.025,0.0798837,
4679.096,0.0795282,
4677.168,0.0791782,
4675.239,0.07883098,
4673.310,0.07849653,
4671.381,0.07817317,
4669.453,0.07783853,
4667.524,0.07749161,
4665.595,0.07714596,
4663.666,0.07681313,
4661.738,0.07649914,
4659.809,0.07617921,
4657.880,0.07580777,
4655.952,0.07538713,
4654.023,0.0749625,
4652.094,0.07456419,
4650.165,0.07418596,
4648.237,0.07376758,
4646.308,0.07327886,
4644.379,0.07277496,
4642.450,0.07230387,
4640.522,0.07187818,
4638.593,0.07147704,
4636.664,0.07104987,
4634.736,0.07060017,
4632.807,0.0701807,
4630.878,0.06979389,
4628.949,0.06941499,
4627.021,0.06904809,
4625.092,0.06868825,
4623.163,0.06832645,
4621.234,0.06796574,
4619.306,0.06762601,
4617.377,0.06736096,
4615.448,0.06716617,
4613.519,0.06695294,
4611.591,0.06672406,
4609.662,0.06658539,
4607.733,0.06652604,
4605.805,0.06645969,
4603.876,0.06641278,
4601.947,0.06641797,
4600.018,0.0664281,
4598.090,0.06643596,
4596.161,0.06648569,
4594.232,0.0665745,
4592.303,0.06666435,
4590.375,0.06676693,
4588.446,0.06692173,
4586.517,0.06713611,
4584.589,0.06737825,
4582.660,0.06760801,
4580.731,0.06783836,
4578.802,0.06810357,
4576.874,0.06838977,
4574.945,0.06866632,
4573.016,0.06893206,
4571.087,0.06924428,
4569.159,0.06964754,
4567.230,0.07007142,
4565.301,0.07044899,
4563.373,0.07079191,
4561.444,0.07112183,
4559.515,0.07147848,
4557.586,0.07186928,
4555.658,0.07226538,
4553.729,0.07266439,
4551.800,0.07305992,
4549.871,0.07344939,
4547.943,0.0738152,
4546.014,0.07413916,
4544.085,0.07445356,
4542.157,0.07478491,
4540.228,0.07516175,
4538.299,0.07557761,
4536.370,0.07593881,
4534.442,0.07621704,
4532.513,0.07647677,
4530.584,0.07675145,
4528.655,0.07704861,
4526.727,0.07733577,
4524.798,0.07755341,
4522.869,0.07773662,
4520.940,0.07793807,
4519.012,0.07812896,
4517.083,0.0782923,
4515.154,0.07842501,
4513.226,0.07850785,
4511.297,0.07853563,
4509.368,0.07854427,
4507.439,0.07858636,
4505.511,0.07861249,
4503.582,0.07855566,
4501.653,0.07846727,
4499.724,0.0783769,
4497.796,0.07824428,
4495.867,0.0780677,
4493.938,0.07786709,
4492.010,0.0776279,
4490.081,0.07735072,
4488.152,0.07708133,
4486.223,0.07680342,
4484.295,0.0764591,
4482.366,0.07609035,
4480.437,0.07574314,
4478.508,0.07536364,
4476.580,0.07492039,
4474.651,0.07444512,
4472.722,0.07396693,
4470.794,0.07349026,
4468.865,0.0730004,
4466.936,0.07250331,
4465.007,0.07201401,
4463.079,0.07152159,
4461.150,0.07102195,
4459.221,0.07051016,
4457.292,0.06995539,
4455.364,0.06935944,
4453.435,0.06878511,
4451.506,0.06827192,
4449.578,0.06778424,
4447.649,0.06729142,
4445.720,0.06682166,
4443.791,0.06637488,
4441.863,0.06589995,
4439.934,0.0654018,
4438.005,0.06492765,
4436.076,0.06449834,
4434.148,0.06410766,
4432.219,0.0637051,
4430.290,0.06328034,
4428.362,0.06290787,
4426.433,0.06258981,
4424.504,0.06226142,
4422.575,0.06193697,
4420.647,0.06167079,
4418.718,0.061471,
4416.789,0.06130521,
4414.860,0.06113793,
4412.932,0.06098468,
4411.003,0.06088266,
4409.074,0.06079017,
4407.145,0.06064774,
4405.217,0.06050607,
4403.288,0.06043338,
4401.359,0.0604053,
4399.431,0.06037799,
4397.502,0.0603358,
4395.573,0.06028357,
4393.644,0.06025663,
4391.716,0.06026938,
4389.787,0.06026257,
4387.858,0.06019505,
4385.929,0.0601312,
4384.001,0.06012027,
4382.072,0.0601469,
4380.143,0.06021263,
4378.215,0.0602941,
4376.286,0.06036299,
4374.357,0.06043415,
4372.428,0.06052734,
4370.500,0.06067237,
4368.571,0.0608718,
4366.642,0.06110724,
4364.713,0.06138774,
4362.785,0.06172688,
4360.856,0.06213775,
4358.927,0.06259869,
4356.999,0.06304915,
4355.070,0.06347913,
4353.141,0.06392258,
4351.212,0.06434101,
4349.284,0.06467979,
4347.355,0.06501293,
4345.426,0.06541664,
4343.497,0.0658517,
4341.569,0.06627603,
4339.640,0.06670701,
4337.711,0.06716513,
4335.783,0.06762282,
4333.854,0.06804459,
4331.925,0.06841446,
4329.996,0.06872857,
4328.068,0.06899723,
4326.139,0.06920175,
4324.210,0.06933704,
4322.281,0.06944435,
4320.353,0.06950317,
4318.424,0.06945254,
4316.495,0.06934485,
4314.567,0.06928039,
4312.638,0.06921454,
4310.709,0.06906044,
4308.780,0.06887119,
4306.852,0.06871294,
4304.923,0.06852843,
4302.994,0.06826426,
4301.065,0.06797393,
4299.137,0.06769755,
4297.208,0.06739576,
4295.279,0.06703189,
4293.350,0.06660669,
4291.422,0.06615663,
4289.493,0.0656969,
4287.564,0.06518985,
4285.636,0.06466109,
4283.707,0.06418188,
4281.778,0.06374251,
4279.849,0.06330714,
4277.921,0.06289557,
4275.992,0.06253,
4274.063,0.06217572,
4272.134,0.06180651,
4270.206,0.06144155,
4268.277,0.06108589,
4266.348,0.0607342,
4264.420,0.06037915,
4262.491,0.06003817,
4260.562,0.05975816,
4258.633,0.05950071,
4256.705,0.05917756,
4254.776,0.05882079,
4252.847,0.05852403,
4250.918,0.05825894,
4248.990,0.05794922,
4247.061,0.05760768,
4245.132,0.05726569,
4243.204,0.05693595,
4241.275,0.05663405,
4239.346,0.05634457,
4237.417,0.05602848,
4235.489,0.05570251,
4233.560,0.05542955,
4231.631,0.05519526,
4229.702,0.054939,
4227.774,0.05466673,
4225.845,0.05442944,
4223.916,0.05425584,
4221.988,0.05413359,
4220.059,0.05404897,
4218.130,0.05399975,
4216.201,0.05397002,
4214.273,0.05395642,
4212.344,0.05399807,
4210.415,0.05413012,
4208.486,0.05432608,
4206.558,0.0545179,
4204.629,0.05467803,
4202.700,0.05484458,
4200.772,0.05502973,
4198.843,0.05521217,
4196.914,0.05541391,
4194.985,0.05563898,
4193.057,0.05582537,
4191.128,0.05595985,
4189.199,0.05611214,
4187.270,0.05630663,
4185.342,0.05650469,
4183.413,0.05668828,
4181.484,0.0568751,
4179.555,0.05709782,
4177.627,0.05736415,
4175.698,0.0576747,
4173.769,0.05801511,
4171.841,0.05830929,
4169.912,0.05852795,
4167.983,0.05874288,
4166.054,0.05901571,
4164.126,0.05930661,
4162.197,0.05953079,
4160.268,0.05971437,
4158.339,0.05994495,
4156.411,0.06021341,
4154.482,0.06047038,
4152.553,0.06073149,
4150.625,0.06101331,
4148.696,0.0612795,
4146.767,0.06151906,
4144.838,0.06175573,
4142.910,0.0619999,
4140.981,0.06225459,
4139.052,0.0625031,
4137.123,0.06270949,
4135.195,0.06286629,
4133.266,0.06300628,
4131.337,0.06313051,
4129.409,0.0632154,
4127.480,0.06329874,
4125.551,0.06339663,
4123.622,0.06344865,
4121.694,0.06344889,
4119.765,0.06345591,
4117.836,0.06347708,
4115.907,0.06348395,
4113.979,0.0634722,
4112.050,0.06342826,
4110.121,0.06332695,
4108.193,0.06317845,
4106.264,0.0630275,
4104.335,0.06288219,
4102.406,0.06268583,
4100.478,0.06241569,
4098.549,0.0621167,
4096.620,0.06182431,
4094.691,0.06152732,
4092.763,0.06120925,
4090.834,0.06087044,
4088.905,0.0604879,
4086.977,0.06006414,
4085.048,0.0596499,
4083.119,0.05925938,
4081.190,0.05887529,
4079.262,0.05847901,
4077.333,0.05806075,
4075.404,0.05761902,
4073.475,0.0571478,
4071.547,0.05668653,
4069.618,0.05627799,
4067.689,0.05588228,
4065.760,0.0554545,
4063.832,0.05500996,
4061.903,0.05457886,
4059.974,0.05416666,
4058.046,0.05374696,
4056.117,0.05330453,
4054.188,0.05287191,
4052.259,0.052487,
4050.331,0.05214178,
4048.402,0.05180643,
4046.473,0.05148771,
4044.544,0.05121434,
4042.616,0.05098291,
4040.687,0.05076518,
4038.758,0.05055526,
4036.830,0.05039471,
4034.901,0.05031307,
4032.972,0.05026234,
4031.043,0.05019511,
4029.115,0.05013784,
4027.186,0.05012245,
4025.257,0.05013437,
4023.328,0.05014717,
4021.400,0.05016799,
4019.471,0.05023098,
4017.542,0.05033734,
4015.614,0.0504566,
4013.685,0.05060536,
4011.756,0.05081474,
4009.827,0.05105671,
4007.899,0.05132201,
4005.970,0.05161864,
4004.041,0.05189111,
4002.112,0.05211145,
4000.184,0.0523203,
3998.255,0.05255928,
3996.326,0.05285099,
3994.398,0.05317925,
3992.469,0.05351137,
3990.540,0.05382729,
3988.611,0.05410068,
3986.683,0.05432226,
3984.754,0.05450881,
3982.825,0.05467831,
3980.896,0.05486294,
3978.968,0.05506565,
3977.039,0.05523742,
3975.110,0.05538118,
3973.181,0.0555584,
3971.253,0.05579029,
3969.324,0.05601432,
3967.395,0.0561564,
3965.467,0.05624815,
3963.538,0.05634331,
3961.609,0.05642055,
3959.680,0.0564903,
3957.752,0.05661454,
3955.823,0.05676229,
3953.894,0.05685037,
3951.965,0.05692341,
3950.037,0.05703013,
3948.108,0.05712941,
3946.179,0.05725146,
3944.251,0.05742799,
3942.322,0.05762278,
3940.393,0.05782929,
3938.464,0.05802163,
3936.536,0.0581474,
3934.607,0.05825964,
3932.678,0.05844291,
3930.749,0.05862563,
3928.821,0.05872912,
3926.892,0.05879949,
3924.963,0.05885024,
3923.035,0.05886905,
3921.106,0.05887577,
3919.177,0.05886734,
3917.248,0.05884003,
3915.320,0.05879485,
3913.391,0.05871847,
3911.462,0.05859037,
3909.533,0.05839252,
3907.605,0.05812688,
3905.676,0.05781213,
3903.747,0.05748454,
3901.819,0.05717436,
3899.890,0.05685458,
3897.961,0.05646934,
3896.032,0.05600874,
3894.104,0.05551431,
3892.175,0.05502358,
3890.246,0.05453236,
3888.317,0.05400958,
3886.389,0.05347033,
3884.460,0.05298461,
3882.531,0.05252152,
3880.603,0.05199572,
3878.674,0.05146848,
3876.745,0.05098145,
3874.816,0.05048495,
3872.888,0.05001332,
3870.959,0.04960198,
3869.030,0.04923401,
3867.101,0.04886481,
3865.173,0.04844122,
3863.244,0.0479972,
3861.315,0.04756929,
3859.386,0.04714476,
3857.458,0.04677474,
3855.529,0.04653042,
3853.600,0.04638406,
3851.672,0.04624561,
3849.743,0.04608414,
3847.814,0.04592157,
3845.885,0.04582874,
3843.957,0.04584937,
3842.028,0.04587163,
3840.099,0.04578588,
3838.170,0.0456741,
3836.242,0.04565839,
3834.313,0.0457252,
3832.384,0.0458482,
3830.456,0.04597092,
3828.527,0.04600093,
3826.598,0.04602039,
3824.669,0.04613329,
3822.741,0.04633617,
3820.812,0.04656213,
3818.883,0.04670109,
3816.954,0.04685438,
3815.026,0.04713847,
3813.097,0.04742811,
3811.168,0.04764442,
3809.240,0.04785997,
3807.311,0.0481327,
3805.382,0.04833737,
3803.453,0.04847095,
3801.525,0.04871258,
3799.596,0.04895225,
3797.667,0.04912351,
3795.738,0.0494005,
3793.810,0.04972215,
3791.881,0.04993368,
3789.952,0.0500653,
3788.024,0.05019291,
3786.095,0.05039752,
3784.166,0.05071335,
3782.237,0.05100441,
3780.309,0.05118043,
3778.380,0.05132784,
3776.451,0.05149587,
3774.522,0.05168314,
3772.594,0.05192915,
3770.665,0.05221685,
3768.736,0.05246082,
3766.808,0.05265988,
3764.879,0.05284636,
3762.950,0.05298971,
3761.021,0.05313744,
3759.093,0.05337144,
3757.164,0.05362425,
3755.235,0.05380847,
3753.306,0.05396615,
3751.378,0.05416276,
3749.449,0.05436061,
3747.520,0.05447408,
3745.591,0.0545322,
3743.663,0.05458727,
3741.734,0.05456833,
3739.805,0.05445662,
3737.877,0.05432413,
3735.948,0.05419429,
3734.019,0.05403944,
3732.090,0.05383684,
3730.162,0.05360209,
3728.233,0.05336755,
3726.304,0.0531304,
3724.375,0.05285137,
3722.447,0.05252842,
3720.518,0.05220296,
3718.589,0.05187201,
3716.661,0.0515145,
3714.732,0.05114109,
3712.803,0.05075242,
3710.874,0.05031516,
3708.946,0.04980823,
3707.017,0.04926741,
3705.088,0.04872111,
3703.159,0.04815431,
3701.231,0.04756972,
3699.302,0.0469886,
3697.373,0.04641835,
3695.445,0.04584952,
3693.516,0.04525714,
3691.587,0.04463499,
3689.658,0.04400165,
3687.730,0.04338068,
3685.801,0.04279255,
3683.872,0.04223466,
3681.943,0.0417003,
3680.015,0.04120127,
3678.086,0.04072789,
3676.157,0.04025617,
3674.229,0.03980822,
3672.300,0.0393925,
3670.371,0.0389732,
3668.442,0.03855874,
3666.514,0.03818399,
3664.585,0.03785448,
3662.656,0.03756413,
3660.727,0.03730524,
3658.799,0.03708503,
3656.870,0.0369122,
3654.941,0.03675931,
3653.013,0.03661328,
3651.084,0.03651637,
3649.155,0.0364876,
3647.226,0.03646579,
3645.298,0.03640521,
3643.369,0.03634637,
3641.440,0.0363296,
3639.511,0.03633654,
3637.583,0.03636019,
3635.654,0.03643721,
3633.725,0.03653956,
3631.796,0.03661694,
3629.868,0.03674287,
3627.939,0.03693124,
3626.010,0.03706384,
3624.082,0.03713699,
3622.153,0.03723011,
3620.224,0.03738744,
3618.295,0.03758606,
3616.367,0.03777982,
3614.438,0.03798525,
3612.509,0.03821544,
3610.580,0.03847164,
3608.652,0.03875035,
3606.723,0.03897794,
3604.794,0.03914716,
3602.866,0.03935567,
3600.937,0.03959173,
3599.008,0.03977632,
3597.079,0.03994871,
3595.151,0.04016592,
3593.222,0.04039417,
3591.293,0.04059772,
3589.364,0.04080237,
3587.436,0.04102743,
3585.507,0.04122768,
3583.578,0.04138317,
3581.650,0.04153376,
3579.721,0.04169156,
3577.792,0.04183764,
3575.863,0.0419726,
3573.935,0.04211231,
3572.006,0.0422611,
3570.077,0.04240602,
3568.148,0.04251966,
3566.220,0.04258392,
3564.291,0.04261587,
3562.362,0.04264053,
3560.434,0.04266466,
3558.505,0.04267342,
3556.576,0.04264242,
3554.647,0.04257263,
3552.719,0.04248301,
3550.790,0.04238283,
3548.861,0.04228219,
3546.932,0.04217727,
3545.004,0.04203232,
3543.075,0.04183389,
3541.146,0.04160619,
3539.217,0.04135384,
3537.289,0.04107529,
3535.360,0.04079133,
3533.431,0.0405012,
3531.503,0.04018782,
3529.574,0.03985377,
3527.645,0.03950496,
3525.716,0.03914059,
3523.788,0.03876204,
3521.859,0.03837929,
3519.930,0.03798778,
3518.001,0.03756176,
3516.073,0.03711594,
3514.144,0.03669794,
3512.215,0.03631278,
3510.287,0.03593078,
3508.358,0.0355337,
3506.429,0.03512038,
3504.500,0.03469799,
3502.572,0.03427508,
3500.643,0.03385254,
3498.714,0.0334252,
3496.785,0.03300555,
3494.857,0.0326206,
3492.928,0.03226432,
3490.999,0.03190798,
3489.071,0.03154193,
3487.142,0.03116713,
3485.213,0.03080748,
3483.284,0.03050607,
3481.356,0.03026245,
3479.427,0.03003944,
3477.498,0.0298258,
3475.569,0.02962483,
3473.641,0.02943894,
3471.712,0.02929045,
3469.783,0.02918972,
3467.855,0.02912606,
3465.926,0.02908362,
3463.997,0.02904117,
3462.068,0.02900582,
3460.140,0.02899303,
3458.211,0.02900421,
3456.282,0.02905162,
3454.353,0.02912579,
3452.425,0.02920005,
3450.496,0.02927365,
3448.567,0.02935073,
3446.639,0.02942844,
3444.710,0.02949878,
3442.781,0.02954921,
3440.852,0.02959463,
3438.924,0.02964859,
3436.995,0.02968133,
3435.066,0.02967412,
3433.137,0.0296387,
3431.209,0.02957734,
3429.280,0.02947396,
3427.351,0.02930866,
3425.422,0.02908302,
3423.494,0.02881158,
3421.565,0.0284941,
3419.636,0.02811765,
3417.708,0.02768238,
3415.779,0.02723034,
3413.850,0.02681141,
3411.921,0.02644638,
3409.993,0.02616451,
3408.064,0.02601683,
3406.135,0.0260574,
3404.206,0.02631587,
3402.278,0.02676857,
3400.349,0.02737174,
3398.420,0.02808009,
3396.492,0.02885076,
3394.563,0.02967358,
3392.634,0.03051701,
3390.705,0.03130805,
3388.777,0.03202618,
3386.848,0.03268528,
3384.919,0.03327785,
3382.990,0.03383032,
3381.062,0.03436985,
3379.133,0.03486113,
3377.204,0.03527819,
3375.276,0.03562341,
3373.347,0.03590023,
3371.418,0.036143,
3369.489,0.03637801,
3367.561,0.03657917,
3365.632,0.03672138,
3363.703,0.03681985,
3361.774,0.03690045,
3359.846,0.03696011,
3357.917,0.03697519,
3355.988,0.03693457,
3354.060,0.03685601,
3352.131,0.03676938,
3350.202,0.03667483,
3348.273,0.03656104,
3346.345,0.03643533,
3344.416,0.03628622,
3342.487,0.03608953,
3340.558,0.03584921,
3338.630,0.03558704,
3336.701,0.0353215,
3334.772,0.0350503,
3332.844,0.03474923,
3330.915,0.03440764,
3328.986,0.03404008,
3327.057,0.03365251,
3325.129,0.03324269,
3323.200,0.03282014,
3321.271,0.03238463,
3319.342,0.03193432,
3317.414,0.03148711,
3315.485,0.03103918,
3313.556,0.03056118,
3311.627,0.03006141,
3309.699,0.02957623,
3307.770,0.02911753,
3305.841,0.02868646,
3303.913,0.02826869,
3301.984,0.0278355,
3300.055,0.02741753,
3298.126,0.02706167,
3296.198,0.02673335,
3294.269,0.02639482,
3292.340,0.0260731,
3290.411,0.02578585,
3288.483,0.0255277,
3286.554,0.02532264,
3284.625,0.02518129,
3282.697,0.02506859,
3280.768,0.02498042,
3278.839,0.02493816,
3276.910,0.02491817,
3274.982,0.02489548,
3273.053,0.02489333,
3271.124,0.02495071,
3269.195,0.0250671,
3267.267,0.02519219,
3265.338,0.02530493,
3263.409,0.02544032,
3261.481,0.0256217,
3259.552,0.02583667,
3257.623,0.02606707,
3255.694,0.0263137,
3253.766,0.02656202,
3251.837,0.02678114,
3249.908,0.02699855,
3247.979,0.02726142,
3246.051,0.02755257,
3244.122,0.02783513,
3242.193,0.02810959,
3240.265,0.02838829,
3238.336,0.02867065,
3236.407,0.02895264,
3234.478,0.02922964,
3232.550,0.02951071,
3230.621,0.02980669,
3228.692,0.03010575,
3226.763,0.03040673,
3224.835,0.03071432,
3222.906,0.03101981,
3220.977,0.03132676,
3219.049,0.03163811,
3217.120,0.03194366,
3215.191,0.03223992,
3213.262,0.03251598,
3211.334,0.03275954,
3209.405,0.03300957,
3207.476,0.03329888,
3205.547,0.03357684,
3203.619,0.03380767,
3201.690,0.03402583,
3199.761,0.03425147,
3197.832,0.03447321,
3195.904,0.0346843,
3193.975,0.03487867,
3192.046,0.0350548,
3190.118,0.03522049,
3188.189,0.03536924,
3186.260,0.03549079,
3184.331,0.03558668,
3182.403,0.03564553,
3180.474,0.03566392,
3178.545,0.03566908,
3176.616,0.03567203,
3174.688,0.03565216,
3172.759,0.03559779,
3170.830,0.03551474,
3168.902,0.03540652,
3166.973,0.03527538,
3165.044,0.03510934,
3163.115,0.03487812,
3161.187,0.03459197,
3159.258,0.03429937,
3157.329,0.03400227,
3155.400,0.03365231,
3153.472,0.03322716,
3151.543,0.03275353,
3149.614,0.03225579,
3147.686,0.03174086,
3145.757,0.03121208,
3143.828,0.03065686,
3141.899,0.03007508,
3139.971,0.02948792,
3138.042,0.02888827,
3136.113,0.028258,
3134.184,0.02760723,
3132.256,0.02695434,
3130.327,0.02631406,
3128.398,0.02570255,
3126.470,0.02511691,
3124.541,0.02451994,
3122.612,0.02388369,
3120.683,0.02325591,
3118.755,0.02270748,
3116.826,0.02223357,
3114.897,0.02179584,
3112.968,0.02138084,
3111.040,0.02099506,
3109.111,0.02065793,
3107.182,0.02037972,
3105.253,0.02015954,
3103.325,0.01998089,
3101.396,0.01982732,
3099.467,0.01972148,
3097.539,0.01967505,
3095.610,0.01966395,
3093.681,0.01969167,
3091.752,0.01978162,
3089.824,0.01991358,
3087.895,0.02005136,
3085.966,0.02021187,
3084.037,0.0204193,
3082.109,0.02065482,
3080.180,0.02090191,
3078.251,0.0211443,
3076.323,0.02136465,
3074.394,0.02159783,
3072.465,0.02187381,
3070.536,0.02213879,
3068.608,0.02234574,
3066.679,0.02252612,
3064.750,0.02270837,
3062.821,0.02288913,
3060.893,0.02307699,
3058.964,0.02328633,
3057.035,0.02351069,
3055.107,0.02372582,
3053.178,0.02393561,
3051.249,0.02416879,
3049.320,0.02443062,
3047.392,0.02470464,
3045.463,0.02496644,
3043.534,0.02520149,
3041.605,0.02539097,
3039.677,0.02549462,
3037.748,0.02551808,
3035.819,0.02551581,
3033.891,0.02550088,
3031.962,0.02544604,
3030.033,0.02535604,
3028.104,0.02526439,
3026.176,0.02518439,
3024.247,0.02510519,
3022.318,0.0250084,
3020.389,0.02488051,
3018.461,0.02471122,
3016.532,0.02448094,
3014.603,0.02418157,
3012.675,0.02382074,
3010.746,0.02338379,
3008.817,0.02284679,
3006.888,0.02218929,
3004.960,0.02138685,
3003.031,0.02046176,
3001.102,0.01944741,
2999.173,0.01831645,
2997.245,0.01706268,
2995.316,0.01574428,
2993.387,0.01441325,
2991.458,0.0130874,
2989.530,0.01177868,
2987.601,0.01053042,
2985.672,0.00939039,
2983.744,0.008348307,
2981.815,0.007369332,
2979.886,0.006458009,
2977.957,0.005622823,
2976.029,0.004824674,
2974.100,0.004024126,
2972.171,0.00324317,
2970.242,0.00253717,
2968.314,0.001937704,
2966.385,0.001443455,
2964.456,0.001044736,
2962.528,0.0007470023,
2960.599,0.0005468376,
2958.670,0.0004184645,
2956.741,0.0003356992,
2954.813,0.0002710072,
2952.884,0.0002171319,
2950.955,0.0001859253,
2949.026,0.0001721678,
2947.098,0.000158103,
2945.169,0.0001379237,
2943.240,0.0001130012,
2941.312,8.232071E-5,
2939.383,7.389535E-5,
2937.454,7.348131E-5,
2935.525,0.0001005744,
2933.597,0.0001168669,
2931.668,0.0001213438,
2929.739,0.0001419629,
2927.810,0.0001724837,
2925.882,0.0002369085,
2923.953,0.0003449039,
2922.024,0.0004699916,
2920.096,0.0006366161,
2918.167,0.000869304,
2916.238,0.001124166,
2914.309,0.001360985,
2912.381,0.001591811,
2910.452,0.001822849,
2908.523,0.002029845,
2906.594,0.002207045,
2904.666,0.002377563,
2902.737,0.00256446,
2900.808,0.002757137,
2898.880,0.002929806,
2896.951,0.003090542,
2895.022,0.003235901,
2893.093,0.003329517,
2891.165,0.003372278,
2889.236,0.003392545,
2887.307,0.00338646,
2885.378,0.003326979,
2883.450,0.003194854,
2881.521,0.002994746,
2879.592,0.002737487,
2877.663,0.002424782,
2875.735,0.002083958,
2873.806,0.00175103,
2871.877,0.001423936,
2869.949,0.001104593,
2868.020,0.0008352807,
2866.091,0.0006615305,
2864.162,0.000587545,
2862.234,0.0005965803,
2860.305,0.0006943499,
2858.376,0.0008925999,
2856.447,0.001217074,
2854.519,0.001714104,
2852.590,0.002393848,
2850.661,0.003220044,
2848.733,0.004134429,
2846.804,0.005038156,
2844.875,0.005827503,
2842.946,0.006459611,
2841.018,0.006917583,
2839.089,0.007194109,
2837.160,0.007325159,
2835.231,0.007356608,
2833.303,0.007336683,
2831.374,0.007322801,
2829.445,0.007341421,
2827.517,0.00741131,
2825.588,0.007569389,
2823.659,0.007826376,
2821.730,0.00816515,
2819.802,0.008579383,
2817.873,0.009067643,
2815.944,0.009603773,
2814.015,0.01014786,
2812.087,0.01069372,
2810.158,0.01125789,
2808.229,0.01182001,
2806.301,0.01234091,
2804.372,0.01280339,
2802.443,0.01318774,
2800.514,0.01349714,
2798.586,0.01380415,
2796.657,0.01418689,
2794.728,0.01468097,
2792.799,0.01529062,
2790.871,0.01596503,
2788.942,0.01663212,
2787.013,0.01727045,
2785.085,0.01788568,
2783.156,0.0184579,
2781.227,0.01895779,
2779.298,0.01939917,
2777.370,0.01982557,
2775.441,0.02025365,
2773.512,0.02067592,
2771.583,0.02107654,
2769.655,0.02143365,
2767.726,0.02174446,
2765.797,0.02202474,
2763.868,0.02229747,
2761.940,0.02260635,
2760.011,0.02298904,
2758.082,0.02343913,
2756.154,0.02392241,
2754.225,0.02439438,
2752.296,0.02481293,
2750.367,0.02515894,
2748.439,0.0254227,
2746.510,0.02560155,
2744.581,0.02571752,
2742.652,0.02577868,
2740.724,0.02577187,
2738.795,0.02572049,
2736.866,0.02564947,
2734.938,0.02553852,
2733.009,0.02537319,
2731.080,0.02516275,
2729.151,0.02491876,
2727.223,0.02464205,
2725.294,0.02432035,
2723.365,0.02394736,
2721.436,0.02350084,
2719.508,0.02295046,
2717.579,0.02232503,
2715.650,0.02167307,
2713.722,0.02099278,
2711.793,0.02027536,
2709.864,0.019543,
2707.935,0.01881109,
2706.007,0.01805158,
2704.078,0.01723632,
2702.149,0.01639867,
2700.220,0.01557551,
2698.292,0.01476644,
2696.363,0.01398825,
2694.434,0.01324685,
2692.506,0.01252881,
2690.577,0.01185639,
2688.648,0.01123418,
2686.719,0.0106348,
2684.791,0.01006395,
2682.862,0.009542656,
2680.933,0.009083557,
2679.004,0.008697205,
2677.076,0.008400137,
2675.147,0.008205238,
2673.218,0.008081116,
2671.290,0.007999687,
2669.361,0.007989547,
2667.432,0.0080783,
2665.503,0.008261385,
2663.575,0.008516495,
2661.646,0.0087971,
2659.717,0.009055476,
2657.788,0.009289385,
2655.860,0.009517379,
2653.931,0.009745995,
2652.002,0.009991462,
2650.073,0.01026543,
2648.145,0.01057381,
2646.216,0.01093877,
2644.287,0.01137239,
2642.359,0.01185733,
2640.430,0.01236114,
2638.501,0.01285471,
2636.572,0.01332629,
2634.644,0.01378919,
2632.715,0.01424647,
2630.786,0.01467589,
2628.857,0.01506889,
2626.929,0.01540981,
2625.000,0.01567828,
2623.071,0.01590048,
2621.143,0.01611369,
2619.214,0.01631723,
2617.285,0.01650478,
2615.356,0.01668191,
2613.428,0.01684433,
2611.499,0.01702346,
2609.570,0.01728767,
2607.641,0.0176669,
2605.713,0.01813805,
2603.784,0.01863381,
2601.855,0.01910605,
2599.927,0.01955887,
2597.998,0.01997348,
2596.069,0.02032518,
2594.140,0.02062979,
2592.212,0.02088328,
2590.283,0.02107413,
2588.354,0.02124656,
2586.425,0.02143759,
2584.497,0.02164328,
2582.568,0.02185537,
2580.639,0.02204331,
2578.711,0.02218005,
2576.782,0.02228594,
2574.853,0.02239087,
2572.924,0.02248625,
2570.996,0.02256746,
2569.067,0.02267036,
2567.138,0.02280207,
2565.209,0.02293801,
2563.281,0.02306643,
2561.352,0.02318539,
2559.423,0.02330093,
2557.494,0.0234004,
2555.566,0.02345262,
2553.637,0.02342354,
2551.708,0.02329027,
2549.780,0.02306843,
2547.851,0.02278147,
2545.922,0.02245126,
2543.993,0.02210204,
2542.065,0.02171506,
2540.136,0.02126032,
2538.207,0.02075903,
2536.278,0.02023897,
2534.350,0.01969722,
2532.421,0.01913661,
2530.492,0.01856492,
2528.564,0.01797057,
2526.635,0.01733592,
2524.706,0.01667026,
2522.777,0.01601061,
2520.849,0.01537305,
2518.920,0.0147405,
2516.991,0.01410007,
2515.062,0.0134429,
2513.134,0.01274035,
2511.205,0.01200009,
2509.276,0.01129666,
2507.348,0.01065858,
2505.419,0.0100459,
2503.490,0.009442601,
2501.561,0.008864354,
2499.633,0.008341294,
2497.704,0.007893283,
2495.775,0.007506457,
2493.846,0.007160339,
2491.918,0.006846936,
2489.989,0.006596178,
2488.060,0.006441096,
2486.132,0.006345944,
2484.203,0.006274261,
2482.274,0.00624549,
2480.345,0.0062777,
2478.417,0.0063567,
2476.488,0.006459636,
2474.559,0.00659648,
2472.630,0.006778823,
2470.702,0.006968949,
2468.773,0.007149031,
2466.844,0.007359189,
2464.916,0.007618411,
2462.987,0.007907221,
2461.058,0.008225091,
2459.129,0.008566867,
2457.201,0.008885163,
2455.272,0.009179322,
2453.343,0.009512762,
2451.414,0.009888406,
2449.486,0.01026193,
2447.557,0.01063232,
2445.628,0.01100536,
2443.699,0.01137511,
2441.771,0.01175517,
2439.842,0.01214618,
2437.913,0.01252904,
2435.985,0.01289464,
2434.056,0.0132308,
2432.127,0.01352196,
2430.198,0.01377636,
2428.270,0.01402568,
2426.341,0.01429025,
2424.412,0.01456406,
2422.483,0.01484269,
2420.555,0.01513577,
2418.626,0.01545019,
2416.697,0.01577252,
2414.769,0.01609104,
2412.840,0.01642173,
2410.911,0.01676754,
2408.982,0.01710962,
2407.054,0.01744852,
2405.125,0.01778399,
2403.196,0.01809014,
2401.267,0.01836069,
2399.339,0.01862188,
2397.410,0.01887082,
2395.481,0.01907912,
2393.553,0.0192618,
2391.624,0.0194517,
2389.695,0.0196281,
2387.766,0.0197497,
2385.838,0.0198166,
2383.909,0.0198652,
2381.980,0.01994397,
2380.051,0.02006918,
2378.123,0.02021241,
2376.194,0.02034351,
2374.265,0.020429,
2372.337,0.02044291,
2370.408,0.02039929,
2368.479,0.02031354,
2366.550,0.02017833,
2364.622,0.02000128,
2362.693,0.01981487,
2360.764,0.01963176,
2358.835,0.01943303,
2356.907,0.01921253,
2354.978,0.01897364,
2353.049,0.01869725,
2351.121,0.01835802,
2349.192,0.01794674,
2347.263,0.01747068,
2345.334,0.01693185,
2343.406,0.01631644,
2341.477,0.01564462,
2339.548,0.01496768,
2337.619,0.01430141,
2335.691,0.01362917,
2333.762,0.01293743,
2331.833,0.01223097,
2329.904,0.01153763,
2327.976,0.01089649,
2326.047,0.01031026,
2324.118,0.009739323,
2322.190,0.009159874,
2320.261,0.008568872,
2318.332,0.007980594,
2316.403,0.007420656,
2314.475,0.006896873,
2312.546,0.006402658,
2310.617,0.005925307,
2308.688,0.005477174,
2306.760,0.00509562,
2304.831,0.004789646,
2302.902,0.004528679,
2300.974,0.004288489,
2299.045,0.004092499,
2297.116,0.003956942,
2295.187,0.003866327,
2293.259,0.003824866,
2291.330,0.003824183,
2289.401,0.003834066,
2287.472,0.003857116,
2285.544,0.003913861,
2283.615,0.004013732,
2281.686,0.0041556,
2279.758,0.00432311,
2277.829,0.004503084,
2275.900,0.004699136,
2273.971,0.004906343,
2272.043,0.005116168,
2270.114,0.005334635,
2268.185,0.005576208,
2266.256,0.005869563,
2264.328,0.006217833,
2262.399,0.006566661,
2260.470,0.00688213,
2258.542,0.007188529,
2256.613,0.007507994,
2254.684,0.007839566,
2252.755,0.008179496,
2250.827,0.008515664,
2248.898,0.008830859,
2246.969,0.009134936,
2245.040,0.009450819,
2243.112,0.009776237,
2241.183,0.01009895,
2239.254,0.01040984,
2237.326,0.01070211,
2235.397,0.01099147,
2233.468,0.01129747,
2231.539,0.01160738,
2229.611,0.01190134,
2227.682,0.01218484,
2225.753,0.01246656,
2223.824,0.01273565,
2221.896,0.01298473,
2219.967,0.01322338,
2218.038,0.01345274,
2216.109,0.01367121,
2214.181,0.01389237,
2212.252,0.01411803,
2210.323,0.01434093,
2208.395,0.01456495,
2206.466,0.01477803,
2204.537,0.01496102,
2202.608,0.0151299,
2200.680,0.01531824,
2198.751,0.01553114,
2196.822,0.01573849,
2194.893,0.01590856,
2192.965,0.01602362,
2191.036,0.01607142,
2189.107,0.0160593,
2187.179,0.01601101,
2185.250,0.01594006,
2183.321,0.01584026,
2181.392,0.01569342,
2179.464,0.01549675,
2177.535,0.01529192,
2175.606,0.01516881,
2173.677,0.01517737,
2171.749,0.01525704,
2169.820,0.01534169,
2167.891,0.01541238,
2165.963,0.01542869,
2164.034,0.01535491,
2162.105,0.01520559,
2160.176,0.01499647,
2158.248,0.01471691,
2156.319,0.01436434,
2154.390,0.0139355,
2152.461,0.01341799,
2150.533,0.01283559,
2148.604,0.01222046,
2146.675,0.01156893,
2144.747,0.01088261,
2142.818,0.01017479,
2140.889,0.009453451,
2138.960,0.008742781,
2137.032,0.008065354,
2135.103,0.007427664,
2133.174,0.006841587,
2131.245,0.006308333,
2129.317,0.005809146,
2127.388,0.005334391,
2125.459,0.004892621,
2123.530,0.004488067,
2121.602,0.004110639,
2119.673,0.003759596,
2117.744,0.003452164,
2115.816,0.003198584,
2113.887,0.002989838,
2111.958,0.002812424,
2110.029,0.002660802,
2108.101,0.002541139,
2106.172,0.002464764,
2104.243,0.002418225,
2102.314,0.002374497,
2100.386,0.002335215,
2098.457,0.002312204,
2096.528,0.002308266,
2094.600,0.002330562,
2092.671,0.002376162,
2090.742,0.002438966,
2088.813,0.002524212,
2086.885,0.002635741,
2084.956,0.002777284,
2083.027,0.002936399,
2081.098,0.00309154,
2079.170,0.003255298,
2077.241,0.003452417,
2075.312,0.003675996,
2073.384,0.003899822,
2071.455,0.004108907,
2069.526,0.004304317,
2067.597,0.004492688,
2065.669,0.004679375,
2063.740,0.004871025,
2061.811,0.005085109,
2059.882,0.005345742,
2057.954,0.005661355,
2056.025,0.00602665,
2054.096,0.006446292,
2052.168,0.006902602,
2050.239,0.00734227,
2048.310,0.007746488,
2046.381,0.008135746,
2044.453,0.008521757,
2042.524,0.008896943,
2040.595,0.009232269,
2038.666,0.009520747,
2036.738,0.009804202,
2034.809,0.01010445,
2032.880,0.01039218,
2030.952,0.01064145,
2029.023,0.01086857,
2027.094,0.0111027,
2025.165,0.01133449,
2023.237,0.01154325,
2021.308,0.01174165,
2019.379,0.01193161,
2017.450,0.01209759,
2015.522,0.01225945,
2013.593,0.0124333,
2011.664,0.01259759,
2009.735,0.01276029,
2007.807,0.01294975,
2005.878,0.01315554,
2003.949,0.01336074,
2002.021,0.01355312,
2000.092,0.01370741,
1998.163,0.01380789,
1996.234,0.01385627,
1994.306,0.01387145,
1992.377,0.01386302,
1990.448,0.01380194,
1988.519,0.01366704,
1986.591,0.01346351,
1984.662,0.01318288,
1982.733,0.01282666,
1980.805,0.01243222,
1978.876,0.01204113,
1976.947,0.01168768,
1975.018,0.01138205,
1973.090,0.01110528,
1971.161,0.01084242,
1969.232,0.01056327,
1967.303,0.01021721,
1965.375,0.009795981,
1963.446,0.009331461,
1961.517,0.008832184,
1959.589,0.008283768,
1957.660,0.007695952,
1955.731,0.007107683,
1953.802,0.006536003,
1951.874,0.005966829,
1949.945,0.005416138,
1948.016,0.004916328,
1946.087,0.004466064,
1944.159,0.00405581,
1942.230,0.003683159,
1940.301,0.003342808,
1938.373,0.003033299,
1936.444,0.002755476,
1934.515,0.002498115,
1932.586,0.002261815,
1930.658,0.002072648,
1928.729,0.001927956,
1926.800,0.001802506,
1924.871,0.00169656,
1922.943,0.001617102,
1921.014,0.001561035,
1919.085,0.001522538,
1917.157,0.001492046,
1915.228,0.001470043,
1913.299,0.00146653,
1911.370,0.001478942,
1909.442,0.001494837,
1907.513,0.00151095,
1905.584,0.0015374,
1903.655,0.001585124,
1901.727,0.00164639,
1899.798,0.001704335,
1897.869,0.001767444,
1895.940,0.001861271,
1894.012,0.001993341,
1892.083,0.002148041,
1890.154,0.002313849,
1888.226,0.002486733,
1886.297,0.002650223,
1884.368,0.002805586,
1882.439,0.002986144,
1880.511,0.003201835,
1878.582,0.003421993,
1876.653,0.003625471,
1874.724,0.003821832,
1872.796,0.004027403,
1870.867,0.004258236,
1868.938,0.004523773,
1867.010,0.004821504,
1865.081,0.005159909,
1863.152,0.005548756,
1861.223,0.005964467,
1859.295,0.006361777,
1857.366,0.006720868,
1855.437,0.007068255,
1853.508,0.007422985,
1851.580,0.007750883,
1849.651,0.008023935,
1847.722,0.008254969,
1845.794,0.008455549,
1843.865,0.008625279,
1841.936,0.008761924,
1840.007,0.00886247,
1838.079,0.008924242,
1836.150,0.008950309,
1834.221,0.008955179,
1832.292,0.00895408,
1830.364,0.008947659,
1828.435,0.008922463,
1826.506,0.008868438,
1824.578,0.008772183,
1822.649,0.008603855,
1820.720,0.008341772,
1818.791,0.007979456,
1816.863,0.007519506,
1814.934,0.006980469,
1813.005,0.006394962,
1811.076,0.005819995,
1809.148,0.005333968,
1807.219,0.004999793,
1805.290,0.004843845,
1803.362,0.004835606,
1801.433,0.004883295,
1799.504,0.004888891,
1797.575,0.004795605,
1795.647,0.004571006,
1793.718,0.004200554,
1791.789,0.003719656,
1789.860,0.003208359,
1787.932,0.002725154,
1786.003,0.002285275,
1784.074,0.001904977,
1782.145,0.001596468,
1780.217,0.001355076,
1778.288,0.001183516,
1776.359,0.001074022,
1774.431,0.001002959,
1772.502,0.0009490855,
1770.573,0.0008931196,
1768.644,0.0008322109,
1766.716,0.0007930594,
1764.787,0.000799126,
1762.858,0.0008373877,
1760.929,0.0008826774,
1759.001,0.0009230978,
1757.072,0.0009628705,
1755.143,0.001016405,
1753.215,0.001075637,
1751.286,0.001125527,
1749.357,0.001189934,
1747.428,0.001289549,
1745.500,0.001386412,
1743.571,0.001426508,
1741.642,0.001398704,
1739.713,0.001302837,
1737.785,0.001125286,
1735.856,0.0008703503,
1733.927,0.0005825395,
1731.999,0.0003448256,
1730.070,0.0002013901,
1728.141,0.0001248269,
1726.212,7.266222E-5,
1724.284,3.941432E-5,
1722.355,3.410037E-5,
1720.426,3.924367E-5,
1718.497,3.843224E-5,
1716.569,3.748327E-5,
1714.640,2.437914E-5,
1712.711,3.236512E-5,
1710.783,4.273511E-5,
1708.854,4.483512E-5,
1706.925,5.217047E-5,
1704.996,6.295731E-5,
1703.068,5.664162E-5,
1701.139,4.09895E-5,
1699.210,7.067489E-5,
1697.281,0.0001734095,
1695.353,0.0003087389,
1693.424,0.0004802528,
1691.495,0.0007049829,
1689.567,0.0009762801,
1687.638,0.001259791,
1685.709,0.001517265,
1683.780,0.001704924,
1681.852,0.001800525,
1679.923,0.001811114,
1677.994,0.001757688,
1676.065,0.001700125,
1674.137,0.001701334,
1672.208,0.001763322,
1670.279,0.001842709,
1668.350,0.001903326,
1666.422,0.001927748,
1664.493,0.001890894,
1662.564,0.001765405,
1660.636,0.001564502,
1658.707,0.001341888,
1656.778,0.001150109,
1654.849,0.0009985226,
1652.921,0.0008800111,
1650.992,0.0008099545,
1649.063,0.0007784787,
1647.134,0.0007632548,
1645.206,0.0007639481,
1643.277,0.0007721906,
1641.348,0.0007674181,
1639.420,0.0007572384,
1637.491,0.0007707955,
1635.562,0.0008121016,
1633.633,0.0008544832,
1631.705,0.0008874381,
1629.776,0.0009307979,
1627.847,0.0009962586,
1625.918,0.001084249,
1623.990,0.00120243,
1622.061,0.001348716,
1620.132,0.001518349,
1618.204,0.001718816,
1616.275,0.001949195,
1614.346,0.002187813,
1612.417,0.002432541,
1610.489,0.002692959,
1608.560,0.002967673,
1606.631,0.003260226,
1604.702,0.003561196,
1602.774,0.003841689,
1600.845,0.004091317,
1598.916,0.004324749,
1596.988,0.004543217,
1595.059,0.004737693,
1593.130,0.004906617,
1591.201,0.005058822,
1589.273,0.005234684,
1587.344,0.005467621,
1585.415,0.005748353,
1583.486,0.006064133,
1581.558,0.006391525,
1579.629,0.006676288,
1577.700,0.006892013,
1575.771,0.00705979,
1573.843,0.007202521,
1571.914,0.00731715,
1569.985,0.007381071,
1568.057,0.007394281,
1566.128,0.007380707,
1564.199,0.007338574,
1562.270,0.007258805,
1560.342,0.007144259,
1558.413,0.006982194,
1556.484,0.006756547,
1554.555,0.006475449,
1552.627,0.006154128,
1550.698,0.005799181,
1548.769,0.005419872,
1546.841,0.005022158,
1544.912,0.004596173,
1542.983,0.004161037,
1541.054,0.003737394,
1539.126,0.003320607,
1537.197,0.0029247,
1535.268,0.002545699,
1533.339,0.002192855,
1531.411,0.001906922,
1529.482,0.00167048,
1527.553,0.001444682,
1525.625,0.00124165,
1523.696,0.001087197,
1521.767,0.0009847421,
1519.838,0.0009073595,
1517.910,0.0008203152,
1515.981,0.0007324276,
1514.052,0.0006640282,
1512.123,0.0006186669,
1510.195,0.0005964023,
1508.266,0.0005841747,
1506.337,0.0005624483,
1504.409,0.000541278,
1502.480,0.0005381971,
1500.551,0.0005357244,
1498.622,0.0005255336,
1496.694,0.0005262799,
1494.765,0.0005317761,
1492.836,0.0005232684,
1490.907,0.000503347,
1488.979,0.0004851857,
1487.050,0.0004832078,
1485.121,0.0005057424,
1483.193,0.0005466719,
1481.264,0.0005977436,
1479.335,0.0006419545,
1477.406,0.0006699966,
1475.478,0.0007058679,
1473.549,0.0007662484,
1471.620,0.0008195944,
1469.691,0.0008262762,
1467.763,0.0007869317,
1465.834,0.0007264557,
1463.905,0.0006741247,
1461.976,0.0006536169,
1460.048,0.0006492884,
1458.119,0.000598872,
1456.190,0.0004665667,
1454.262,0.0003079324,
1452.333,0.0001940639,
1450.404,0.0001467501,
1448.475,0.0001529877,
1446.547,0.0002009108,
1444.618,0.0002897237,
1442.689,0.0003984258,
1440.760,0.0004964781,
1438.832,0.000553551,
1436.903,0.0005436571,
1434.974,0.0004865297,
1433.046,0.0004118511,
1431.117,0.0003331514,
1429.188,0.0002790891,
1427.259,0.0002595058,
1425.331,0.0002606875,
1423.402,0.0002739912,
1421.473,0.0002859144,
1419.544,0.0003052342,
1417.616,0.0003566429,
1415.687,0.0004369709,
1413.758,0.0005455969,
1411.830,0.0006968081,
1409.901,0.0008927201,
1407.972,0.001118816,
1406.043,0.001348201,
1404.115,0.001555538,
1402.186,0.001752535,
1400.257,0.00197427,
1398.328,0.00221849,
1396.400,0.002461099,
1394.471,0.00269895,
1392.542,0.002924837,
1390.614,0.003127575,
1388.685,0.003308542,
1386.756,0.003462967,
1384.827,0.003576665,
1382.899,0.003652047,
1380.970,0.003708232,
1379.041,0.003741508,
1377.112,0.003729712,
1375.184,0.003668917,
1373.255,0.003565307,
1371.326,0.003409576,
1369.398,0.003182187,
1367.469,0.00290086,
1365.540,0.002605506,
1363.611,0.002284974,
1361.683,0.001917264,
1359.754,0.00153336,
1357.825,0.001185594,
1355.896,0.0009004418,
1353.968,0.0006698247,
1352.039,0.0004930258,
1350.110,0.0003840352,
1348.181,0.000337869,
1346.253,0.0003352942,
1344.324,0.0003427039,
1342.395,0.0003319237,
1340.467,0.0003066305,
1338.538,0.0003118032,
1336.609,0.0003919238,
1334.680,0.0005010166,
1332.752,0.0005493257,
1330.823,0.0005274235,
1328.894,0.0004662486,
1326.965,0.000380631,
1325.037,0.0002996423,
1323.108,0.0002504849,
1321.179,0.0002216117,
1319.251,0.0001860986,
1317.322,0.0001398166,
1315.393,9.009357E-5,
1313.464,6.550793E-5,
1311.536,8.14622E-5,
1309.607,0.0001116118,
1307.678,0.0001870893,
1305.749,0.0002853102,
1303.821,0.0003638157,
1301.892,0.000401595,
1299.963,0.0004160664,
1298.035,0.0004157348,
1296.106,0.0003907137,
1294.177,0.0003544787,
1292.248,0.0003231413,
1290.320,0.0002929782,
1288.391,0.0002692972,
1286.462,0.0002666645,
1284.533,0.0002780092,
1282.605,0.0002778742,
1280.676,0.000255871,
1278.747,0.0002388222,
1276.819,0.0002466741,
1274.890,0.0002544978,
1272.961,0.000253167,
1271.032,0.0002611419,
1269.104,0.0002745562,
1267.175,0.0002723581,
1265.246,0.0002566907,
1263.317,0.0002388914,
1261.389,0.0002294879,
1259.460,0.0002498762,
1257.531,0.0002935657,
1255.603,0.0003388223,
1253.674,0.0003709363,
1251.745,0.0003904889,
1249.816,0.0004085851,
1247.888,0.000433787,
1245.959,0.0004633596,
1244.030,0.0005100854,
1242.101,0.0005701251,
1240.173,0.0005942043,
1238.244,0.0005803697,
1236.315,0.0005637869,
1234.386,0.0005300731,
1232.458,0.0004565932,
1230.529,0.0003606122,
1228.600,0.0002751943,
1226.672,0.0001997399,
1224.743,0.0001220511,
1222.814,7.830522E-5,
1220.885,8.96418E-5,
1218.957,0.0001160857,
1217.028,0.0001392932,
1215.099,0.0001716612,
1213.170,0.000204504,
1211.242,0.0002343102,
1209.313,0.0002705082,
1207.384,0.0003345258,
1205.456,0.000411632,
1203.527,0.0004976867,
1201.598,0.0006323068,
1199.669,0.0008105029,
1197.741,0.0009781549,
1195.812,0.001123549,
1193.883,0.001267858,
1191.954,0.001408929,
1190.026,0.001532358,
1188.097,0.001621977,
1186.168,0.001680482,
1184.240,0.001726282,
1182.311,0.001773828,
1180.382,0.001833707,
1178.453,0.00187307,
1176.525,0.001866623,
1174.596,0.001856111,
1172.667,0.001852498,
1170.738,0.001823307,
1168.810,0.001765717,
1166.881,0.0016851,
1164.952,0.001583047,
1163.024,0.001465385,
1161.095,0.001329289,
1159.166,0.001181781,
1157.237,0.001036137,
1155.309,0.0008954805,
1153.380,0.000763541,
1151.451,0.0006516634,
1149.522,0.0005661659,
1147.594,0.0004874026,
1145.665,0.0003977161,
1143.736,0.000318886,
1141.807,0.0002731571,
1139.879,0.0002447994,
1137.950,0.0002165114,
1136.021,0.0001856853,
1134.093,0.0001561182,
1132.164,0.0001259112,
1130.235,9.576882E-5,
1128.306,8.648553E-5,
1126.378,8.787803E-5,
1124.449,7.14291E-5,
1122.520,4.644402E-5,
1120.591,2.386617E-5,
1118.663,5.505942E-5,
1116.734,9.306708E-5,
1114.805,0.000110827,
1112.877,0.0001212822,
1110.948,0.0001636521,
1109.019,0.0001895509,
1107.090,0.0001547769,
1105.162,0.0001032138,
1103.233,7.794519E-5,
1101.304,8.200633E-5,
1099.375,9.88777E-5,
1097.447,9.172761E-5,
1095.518,6.003141E-5,
1093.589,4.468827E-5,
1091.661,8.82652E-5,
1089.732,0.0001294438,
1087.803,0.0001431279,
1085.874,0.0001112988,
1083.946,8.562616E-5,
1082.017,0.000102696,
1080.088,0.0001229016,
1078.159,0.0001487629,
1076.231,0.0001453937,
1074.302,0.0001334105,
1072.373,0.0001115127,
1070.445,0.000107775,
1068.516,8.734714E-5,
1066.587,4.263019E-5,
1064.658,2.444247E-5,
1062.730,2.326921E-5,
1060.801,6.488017E-5,
1058.872,7.473981E-5,
1056.943,7.949632E-5,
1055.015,0.0001322802,
1053.086,0.0001448799,
1051.157,0.0001375906,
1049.229,0.0001502966,
1047.300,0.0001703028,
1045.371,0.0001681597,
1043.442,0.0001307061,
1041.514,9.139905E-5,
1039.585,0.0001059076,
1037.656,0.0001109303,
1035.727,0.0001158538,
1033.799,0.0001352078,
1031.870,0.0001357386,
1029.941,0.0001290628,
1028.012,0.0001506479,
1026.084,0.0001912495,
1024.155,0.0002192382,
1022.226,0.0002180772,
1020.298,0.0001779823,
1018.369,0.0001303756,
1016.440,0.0001048706,
1014.511,9.9004E-5,
1012.583,0.0001009896,
1010.654,0.0001503052,
1008.725,0.0002070142,
1006.796,0.0002075806,
1004.868,0.0001888145,
1002.939,0.000211112,
1001.010,0.0002527713,
999.082,0.0002865431,
997.153,0.0002998203,
995.224,0.0002746643,
993.295,0.0002184894,
991.367,0.0001706917,
989.438,0.0001631181,
987.509,0.000187536,
985.580,0.0001952916,
983.652,0.0002047796,
981.723,0.0002338435,
979.794,0.0002456327,
977.866,0.0002286188,
975.937,0.0002048947,
974.008,0.0001937547,
972.079,0.0001789062,
970.151,0.0001640227,
968.222,0.0001606751,
966.293,0.0001541963,
964.364,0.0001360472,
962.436,0.0001092192,
960.507,8.551691E-5,
958.578,6.52715E-5,
956.650,6.848037E-5,
954.721,6.961847E-5,
952.792,5.553548E-5,
950.863,5.900855E-5,
948.935,5.185234E-5,
947.006,7.80483E-5,
945.077,7.064088E-5,
943.148,5.629039E-5,
941.220,5.108542E-5,
939.291,2.88451E-5,
937.362,2.439549E-5,
935.434,4.894183E-5,
933.505,4.90117E-5,
931.576,7.783643E-5,
929.647,8.685378E-5,
927.719,5.069039E-5,
925.790,3.100274E-5,
923.861,3.789015E-5,
921.932,4.591539E-5,
920.004,6.090347E-5,
918.075,4.631819E-5,
916.146,5.866418E-5,
914.217,5.022572E-5,
912.289,6.718586E-5,
910.360,8.085772E-5,
908.431,8.804167E-5,
906.503,7.165385E-5,
904.574,4.565556E-5,
902.645,3.617522E-5,
900.716,5.808735E-5,
898.788,5.454213E-5,
896.859,4.305724E-5,
894.930,3.09337E-5,
893.001,6.331332E-5,
891.073,5.641831E-5,
889.144,4.286541E-5,
887.215,7.244354E-5,
885.287,0.0001010945,
883.358,0.0001097708,
881.429,8.488452E-5,
879.500,5.380448E-5,
877.572,8.671977E-5,
875.643,9.083197E-5,
873.714,9.835972E-5,
871.785,8.062431E-5,
869.857,6.814813E-5,
867.928,8.720647E-5,
865.999,9.809425E-5,
864.071,9.589524E-5,
862.142,0.0001014478,
860.213,0.0001053455,
858.284,0.0001147147,
856.356,0.0001280015,
854.427,9.343858E-5,
852.498,0.00010002,
850.569,0.0001243161,
848.641,0.0001575135,
846.712,0.0001440986,
844.783,0.0001069601,
842.855,9.159611E-5,
840.926,8.499291E-5,
838.997,9.535024E-5,
837.068,0.0001454997,
835.140,0.0001366255,
833.211,9.41874E-5,
831.282,6.28241E-5,
829.353,8.456687E-5,
827.425,0.0001067673,
825.496,8.001385E-5,
823.567,3.222716E-5,
821.639,9.372223E-5,
819.710,0.000145344,
817.781,0.0001565286,
815.852,0.0001673155,
813.924,0.0001571918,
811.995,0.0001464274,
810.066,0.0001319677,
808.137,0.0001292814,
806.209,0.000130352,
804.280,0.0001217473,
802.351,9.718913E-5,
800.422,7.616309E-5,
798.494,6.216432E-5,
796.565,9.103143E-5,
794.636,0.0001184485,
792.708,0.0001173544,
790.779,9.947149E-5,
788.850,0.000121769,
786.921,0.000142063,
784.993,0.0001283082,
783.064,0.0001072903,
781.135,7.967697E-5,
779.206,5.733799E-5,
777.278,5.631343E-5,
775.349,8.303901E-5,
773.420,9.207797E-5,
771.492,8.694363E-5,
769.563,0.0001326008,
767.634,0.0001405097,
765.705,0.0001116401,
763.777,7.545864E-5,
761.848,9.037408E-5,
759.919,9.287932E-5,
757.990,0.0001353457,
756.062,0.000175215,
754.133,0.0001560948,
752.204,8.68661E-5,
750.276,9.31563E-5,
748.347,0.0001141065,
746.418,0.0001311566,
744.489,0.0001385456,
742.561,9.635417E-5,
740.632,3.523654E-5,
738.703,0.0001153433,
736.774,0.0002185111,
734.846,0.0002591517,
732.917,0.0002124046,
730.988,0.0001079923,
729.060,7.550024E-5,
727.131,8.1739E-5,
725.202,0.0001237835,
723.273,0.0001388885,
721.345,0.0001433629,
719.416,0.0001225494,
717.487,6.933096E-5,
715.558,0.0001035538,
713.630,5.066854E-5,
711.701,8.884334E-5,
709.772,0.0001357018,
707.843,0.0001682651,
705.915,0.0001725779,
703.986,0.0001579742,
702.057,0.000112166,
700.129,0.0001278294,
698.200,0.0001862367,
696.271,0.0002275044,
694.342,0.0002356402,
692.414,0.000183877,
690.485,0.0001332813,
688.556,0.0001038129,
686.627,0.000153466,
684.699,0.0001319217,
682.770,0.0001197167,
680.841,7.285327E-5,
678.913,0.0002064901,
676.984,0.0003083666,
675.055,0.0003454237,
673.126,0.0003028119,
671.198,0.0001946019,
669.269,0.000115186,
667.340,9.916322E-5,
665.411,4.615874E-5,
663.483,7.8008E-5,
661.554,0.0001256827,
659.625,0.0001628479,
657.697,0.0002035597,
655.768,0.0001913983,
653.839,0.0001781604,
651.910,0.0002604036,
649.982,0.0001969267,
648.053,0.000125448,
646.124,0.0002126931,
644.195,0.0002653902,
642.267,0.0002459745,
640.338,0.0002234579,
638.409,0.0001864793,
636.481,0.0001552645,
634.552,7.585526E-5,
632.623,9.191031E-5,
630.694,0.0001217008,
628.766,0.0001541904,
626.837,0.0001526359,
624.908,0.0001726495,
622.979,0.0002058505,
621.051,0.0002445784,
619.122,0.0003778595,
617.193,0.0004664,
615.265,0.000432903,
613.336,0.000318323,
611.407,0.0001894603,
609.478,0.0002025071,
607.550,0.0002165424,
605.621,0.0002756496,
603.692,0.0001909155,
601.763,0.000247701,
599.835,0.0002260873,
597.906,0.0001709944,
595.977,0.0002150611,
594.048,0.0003603535,
592.120,0.0005113627,
590.191,0.0004957835,
588.262,0.0003272669,
586.334,0.0003188964,
584.405,0.0002665764,
582.476,0.000203149,
580.547,0.0004037,
578.619,0.0004176396,
576.690,0.0003129094,
574.761,0.0002823345,
572.832,0.0003026677,
570.904,0.0002169738,
568.975,0.0002958754,
567.046,0.000465799,
565.118,0.0006542347,
563.189,0.000663198,
561.260,0.0004366437,
559.331,0.0002345419,
557.403,0.0003892498,
555.474,0.0004818306,
553.545,0.0005647431,
551.616,0.0005403113,
549.688,0.0004320347,
547.759,0.000446601,
545.830,0.0003654725,
543.902,0.0002337995,
541.973,0.000326338,
540.044,0.0004584724,
538.115,0.0004175229,
536.187,0.0003696,
534.258,0.0002766232,
532.329,0.000420529,
530.400,0.0004206953,
528.472,0.0005424987,
526.543,0.0005028936,
524.614,0.0001721327,
522.686,0.0001769629,
520.757,0.0001997697,
518.828,0.0002050637,
516.899,0.0003413471,
514.971,0.0002497456,
513.042,0.0002831813,
511.113,0.0004950615,
509.184,0.0005596323,
507.256,0.000549893,
505.327,0.0004425544,
503.398,0.0003841667,
501.470,0.0003441016,
499.541,0.0003134653,
497.612,0.0005143695,
495.683,0.0005478741,
493.755,0.0003215286,
491.826,0.0005089706,
489.897,0.0008347302,
487.968,0.0007502105,
486.040,0.0005254201,
484.111,0.0006014028,
482.182,0.0006532853,
480.253,0.0004934698,
478.325,0.0003686206,
476.396,0.0005947994,
474.467,0.0006193073,
472.539,0.0006383905,
470.610,0.0007808306,
468.681,0.0005961767,
466.752,0.00052007,
464.824,0.0008609482,
462.895,0.0008216114,
460.966,0.0005784038,
459.037,0.0007915184,
457.109,0.0007570313,
455.180,0.0003572173,
453.251,0.0004316847,
451.323,0.0002440734,
449.394,0.0004160428,
447.465,0.0007614925,
445.536,0.0009880731,
443.608,0.0009856696,
441.679,0.001041637,
439.750,0.0009949909,
437.821,0.0007010977,
435.893,0.0007759785,
433.964,0.001259272,
432.035,0.001849786,
430.107,0.001894966,
428.178,0.001262561,
426.249,0.0008734913,
424.320,0.001391882,
422.392,0.001607623,
420.463,0.001474731,
418.534,0.001314815,
416.605,0.001267904,
414.677,0.00115791,
412.748,0.00161931,
410.819,0.002544364,
408.891,0.002735492,
406.962,0.003159023,
405.033,0.003514951,
403.104,0.002727681,
401.176,0.002520563,
399.247,0.003484867,
397.318,0.003621901,
395.389,0.002778051,
393.461,0.002259386,
391.532,0.003171489,
389.603,0.002985992,
387.675,0.002300623,
385.746,0.003212211,
383.817,0.004347085,
381.888,0.006611836,
379.960,0.007328753,
378.031,0.006325451,
376.102,0.007396401,
374.173,0.01383526,
