,6,
Wavenumbers [1/cm],Transmittance,
7496.969,0.08949627,
7495.040,0.09231368,
7493.112,0.09487679,
7491.183,0.09697342,
7489.254,0.0994041,
7487.326,0.1024044,
7485.397,0.1055552,
7483.468,0.108897,
7481.539,0.1120331,
7479.611,0.1143103,
7477.682,0.1163922,
7475.753,0.1192115,
7473.824,0.1224373,
7471.896,0.1258293,
7469.967,0.1298177,
7468.038,0.1341015,
7466.110,0.1380146,
7464.181,0.141541,
7462.252,0.1447924,
7460.323,0.1479164,
7458.395,0.1510748,
7456.466,0.1539406,
7454.537,0.1561407,
7452.608,0.1579092,
7450.680,0.1599112,
7448.751,0.161914,
7446.822,0.162787,
7444.893,0.1628806,
7442.965,0.1633443,
7441.036,0.1640081,
7439.107,0.1643882,
7437.179,0.1644942,
7435.250,0.1643365,
7433.321,0.1636676,
7431.392,0.1625085,
7429.464,0.1612783,
7427.535,0.1597815,
7425.606,0.1579196,
7423.677,0.1561478,
7421.749,0.1542269,
7419.820,0.1519167,
7417.891,0.149348,
7415.963,0.1464131,
7414.034,0.1435491,
7412.105,0.141192,
7410.176,0.1389015,
7408.248,0.1362338,
7406.319,0.1332849,
7404.390,0.1305569,
7402.461,0.1282465,
7400.533,0.1258835,
7398.604,0.1232491,
7396.675,0.1207498,
7394.747,0.1184781,
7392.818,0.1159174,
7390.889,0.1131806,
7388.960,0.1109473,
7387.032,0.1089707,
7385.103,0.1065745,
7383.174,0.1040005,
7381.245,0.1017479,
7379.317,0.09947532,
7377.388,0.09693182,
7375.459,0.094706,
7373.531,0.09309647,
7371.602,0.09167381,
7369.673,0.09012114,
7367.744,0.08872164,
7365.816,0.0876788,
7363.887,0.08653512,
7361.958,0.08490252,
7360.029,0.08313563,
7358.101,0.08170378,
7356.172,0.08047877,
7354.243,0.07927326,
7352.314,0.0781539,
7350.386,0.07726003,
7348.457,0.07674687,
7346.528,0.07625401,
7344.600,0.07543649,
7342.671,0.07455342,
7340.742,0.07379302,
7338.813,0.07342371,
7336.885,0.0737531,
7334.956,0.07443424,
7333.027,0.07478794,
7331.098,0.07451484,
7329.170,0.074185,
7327.241,0.07452042,
7325.312,0.07522953,
7323.384,0.07563645,
7321.455,0.07571007,
7319.526,0.07575484,
7317.597,0.07585669,
7315.669,0.07572474,
7313.740,0.07553639,
7311.811,0.07650385,
7309.882,0.0789203,
7307.954,0.08119584,
7306.025,0.08229245,
7304.096,0.08268194,
7302.168,0.08288605,
7300.239,0.08341546,
7298.310,0.08500014,
7296.381,0.08755159,
7294.453,0.09056221,
7292.524,0.09391229,
7290.595,0.09690657,
7288.666,0.09916405,
7286.738,0.1016159,
7284.809,0.1044538,
7282.880,0.1072245,
7280.952,0.1101275,
7279.023,0.1129316,
7277.094,0.1155445,
7275.165,0.118709,
7273.237,0.1222078,
7271.308,0.1251035,
7269.379,0.1275735,
7267.450,0.1305582,
7265.522,0.1341681,
7263.593,0.1373912,
7261.664,0.1394601,
7259.736,0.1411146,
7257.807,0.1440977,
7255.878,0.1488356,
7253.949,0.153898,
7252.021,0.1582081,
7250.092,0.1617482,
7248.163,0.1647361,
7246.234,0.1671143,
7244.306,0.1687654,
7242.377,0.1700308,
7240.448,0.1713246,
7238.519,0.1730494,
7236.591,0.1752638,
7234.662,0.177039,
7232.733,0.177821,
7230.805,0.178124,
7228.876,0.1781384,
7226.947,0.1777137,
7225.018,0.1771477,
7223.090,0.1766456,
7221.161,0.1760238,
7219.232,0.1751891,
7217.303,0.1740455,
7215.375,0.1723304,
7213.446,0.1701161,
7211.517,0.1678015,
7209.589,0.1654977,
7207.660,0.1630381,
7205.731,0.1601243,
7203.802,0.1566726,
7201.874,0.1532363,
7199.945,0.1501386,
7198.016,0.1471938,
7196.087,0.1444485,
7194.159,0.1416585,
7192.230,0.1384074,
7190.301,0.1350957,
7188.373,0.1320602,
7186.444,0.1290097,
7184.515,0.1259424,
7182.586,0.1229952,
7180.658,0.1200553,
7178.729,0.1170659,
7176.800,0.1140102,
7174.871,0.1109825,
7172.943,0.1082575,
7171.014,0.1059231,
7169.085,0.1037274,
7167.157,0.1013508,
7165.228,0.09871833,
7163.299,0.09608625,
7161.370,0.09373009,
7159.442,0.09176692,
7157.513,0.09014773,
7155.584,0.08849708,
7153.655,0.08664464,
7151.727,0.08486505,
7149.798,0.08324947,
7147.869,0.08164661,
7145.941,0.07987779,
7144.012,0.07814058,
7142.083,0.07676771,
7140.154,0.07537094,
7138.226,0.07383017,
7136.297,0.0728036,
7134.368,0.0721819,
7132.439,0.07139415,
7130.511,0.07056314,
7128.582,0.06991415,
7126.653,0.06943446,
7124.724,0.06897254,
7122.796,0.06833554,
7120.867,0.06769797,
7118.938,0.06728821,
7117.010,0.06706983,
7115.081,0.06677809,
7113.152,0.06620846,
7111.223,0.06593246,
7109.295,0.06643887,
7107.366,0.06705863,
7105.437,0.06723923,
7103.508,0.06738553,
7101.580,0.06775441,
7099.651,0.06806362,
7097.722,0.06814922,
7095.794,0.06816963,
7093.865,0.06850149,
7091.936,0.06933527,
7090.007,0.07052568,
7088.079,0.0719613,
7086.150,0.0734795,
7084.221,0.07490737,
7082.292,0.07622907,
7080.364,0.07746278,
7078.435,0.07877304,
7076.506,0.08039153,
7074.578,0.08227151,
7072.649,0.0841696,
7070.720,0.08611709,
7068.791,0.08836112,
7066.863,0.09094918,
7064.934,0.09379426,
7063.005,0.09679765,
7061.076,0.09982906,
7059.148,0.1028327,
7057.219,0.1059056,
7055.290,0.1091173,
7053.362,0.1124359,
7051.433,0.1158679,
7049.504,0.1194406,
7047.575,0.1232642,
7045.647,0.1272613,
7043.718,0.1308998,
7041.789,0.1339806,
7039.860,0.1369548,
7037.932,0.1402073,
7036.003,0.1437945,
7034.074,0.147366,
7032.146,0.1503966,
7030.217,0.1530283,
7028.288,0.1557226,
7026.359,0.1583436,
7024.431,0.1605674,
7022.502,0.1624304,
7020.573,0.1641032,
7018.644,0.1654936,
7016.716,0.1663214,
7014.787,0.1665969,
7012.858,0.1666291,
7010.929,0.1664888,
7009.001,0.1659768,
7007.072,0.1652479,
7005.143,0.1644374,
7003.215,0.1630553,
7001.286,0.1609161,
6999.357,0.1585668,
6997.428,0.156379,
6995.500,0.1541241,
6993.571,0.1514836,
6991.642,0.1486617,
6989.713,0.1460475,
6987.785,0.1434904,
6985.856,0.1406074,
6983.927,0.1375015,
6981.999,0.1345467,
6980.070,0.1317126,
6978.141,0.1287187,
6976.212,0.125597,
6974.284,0.1225668,
6972.355,0.1198305,
6970.426,0.1174138,
6968.497,0.1148669,
6966.569,0.111899,
6964.640,0.1088548,
6962.711,0.1061621,
6960.783,0.1038663,
6958.854,0.1015068,
6956.925,0.0989278,
6954.996,0.09661909,
6953.068,0.09468807,
6951.139,0.09278516,
6949.210,0.09076778,
6947.281,0.08881596,
6945.353,0.08708054,
6943.424,0.08542362,
6941.495,0.08375471,
6939.567,0.08209233,
6937.638,0.08042028,
6935.709,0.0788276,
6933.780,0.07739927,
6931.852,0.07614841,
6929.923,0.07495425,
6927.994,0.07369992,
6926.065,0.07258506,
6924.137,0.07162929,
6922.208,0.07066441,
6920.279,0.06989495,
6918.350,0.06931906,
6916.422,0.06864657,
6914.493,0.06790288,
6912.564,0.06721561,
6910.636,0.06672923,
6908.707,0.06661402,
6906.778,0.06679123,
6904.849,0.06699533,
6902.921,0.06701814,
6900.992,0.06700344,
6899.063,0.0672933,
6897.134,0.06773367,
6895.206,0.06794969,
6893.277,0.06811254,
6891.348,0.068556,
6889.420,0.06924251,
6887.491,0.06988261,
6885.562,0.07041368,
6883.633,0.07113697,
6881.705,0.07217304,
6879.776,0.07336771,
6877.847,0.07457081,
6875.918,0.07570048,
6873.990,0.07700483,
6872.061,0.07887737,
6870.132,0.08105727,
6868.204,0.08291326,
6866.275,0.08453061,
6864.346,0.08638463,
6862.417,0.08848912,
6860.489,0.09067336,
6858.560,0.09294892,
6856.631,0.09533068,
6854.702,0.09777248,
6852.774,0.1003321,
6850.845,0.1030696,
6848.916,0.1060157,
6846.988,0.1090858,
6845.059,0.1120282,
6843.130,0.1149616,
6841.201,0.1182304,
6839.273,0.1217848,
6837.344,0.125246,
6835.415,0.1284706,
6833.486,0.1317434,
6831.558,0.1351695,
6829.629,0.1387077,
6827.700,0.1424568,
6825.772,0.146336,
6823.843,0.1500973,
6821.914,0.1535264,
6819.985,0.1566377,
6818.057,0.1596278,
6816.128,0.1624946,
6814.199,0.165017,
6812.270,0.1671536,
6810.342,0.1690907,
6808.413,0.1709,
6806.484,0.1725013,
6804.555,0.1737232,
6802.627,0.1744491,
6800.698,0.1747668,
6798.769,0.1747747,
6796.841,0.1744533,
6794.912,0.1737324,
6792.983,0.1725266,
6791.054,0.1707821,
6789.126,0.1687485,
6787.197,0.1667047,
6785.268,0.1644449,
6783.339,0.1617952,
6781.411,0.1589819,
6779.482,0.1561487,
6777.553,0.1531903,
6775.625,0.1500931,
6773.696,0.1469511,
6771.767,0.1437512,
6769.838,0.1404489,
6767.910,0.1369983,
6765.981,0.1334556,
6764.052,0.1300009,
6762.123,0.1266132,
6760.195,0.1232801,
6758.266,0.1202013,
6756.337,0.1172528,
6754.409,0.1141706,
6752.480,0.1112164,
6750.551,0.1085674,
6748.622,0.1059544,
6746.694,0.1032522,
6744.765,0.1005191,
6742.836,0.09793079,
6740.907,0.09555104,
6738.979,0.09314511,
6737.050,0.09072016,
6735.121,0.08846611,
6733.193,0.08632588,
6731.264,0.08433792,
6729.335,0.08261586,
6727.406,0.08091822,
6725.478,0.07908764,
6723.549,0.077292,
6721.620,0.07558598,
6719.691,0.074062,
6717.763,0.07287545,
6715.834,0.07183074,
6713.905,0.07063836,
6711.977,0.06935692,
6710.048,0.06816566,
6708.119,0.0670668,
6706.190,0.06611918,
6704.262,0.0654522,
6702.333,0.06483774,
6700.404,0.06400374,
6698.475,0.0633078,
6696.547,0.06307938,
6694.618,0.06285775,
6692.689,0.06227686,
6690.760,0.06165347,
6688.832,0.06130247,
6686.903,0.06119846,
6684.974,0.0612728,
6683.046,0.06149059,
6681.117,0.06173982,
6679.188,0.06202739,
6677.259,0.06240804,
6675.331,0.06278883,
6673.402,0.06313483,
6671.473,0.06350578,
6669.544,0.06406903,
6667.616,0.06489415,
6665.687,0.06582726,
6663.758,0.06685967,
6661.830,0.06795164,
6659.901,0.06905654,
6657.972,0.07035816,
6656.043,0.07188867,
6654.115,0.07344799,
6652.186,0.07490918,
6650.257,0.07648978,
6648.328,0.07843369,
6646.400,0.08062439,
6644.471,0.08301012,
6642.542,0.08555716,
6640.614,0.08809569,
6638.685,0.09071588,
6636.756,0.09354747,
6634.827,0.09647644,
6632.899,0.09949318,
6630.970,0.1027213,
6629.041,0.1061451,
6627.112,0.1097604,
6625.184,0.1135777,
6623.255,0.1174405,
6621.326,0.1211728,
6619.398,0.1247714,
6617.469,0.128554,
6615.540,0.1327612,
6613.611,0.1370523,
6611.683,0.141067,
6609.754,0.1449221,
6607.825,0.1487474,
6605.896,0.1523465,
6603.968,0.1555948,
6602.039,0.1587295,
6600.110,0.161795,
6598.182,0.1644022,
6596.253,0.166447,
6594.324,0.1681666,
6592.395,0.1695225,
6590.467,0.1703674,
6588.538,0.1707752,
6586.609,0.1708315,
6584.680,0.1705442,
6582.752,0.1699864,
6580.823,0.1692092,
6578.894,0.168089,
6576.965,0.1665143,
6575.037,0.1644329,
6573.108,0.1617589,
6571.179,0.1587191,
6569.251,0.1558735,
6567.322,0.1533018,
6565.393,0.1504807,
6563.464,0.1472709,
6561.536,0.1439993,
6559.607,0.140773,
6557.678,0.1375694,
6555.749,0.1343196,
6553.821,0.1308476,
6551.892,0.127278,
6549.963,0.1239503,
6548.035,0.1208388,
6546.106,0.1176395,
6544.177,0.1144061,
6542.248,0.1114596,
6540.320,0.1086914,
6538.391,0.1058114,
6536.462,0.1028937,
6534.533,0.1000471,
6532.605,0.09732301,
6530.676,0.09490247,
6528.747,0.09270853,
6526.819,0.09045137,
6524.890,0.0881596,
6522.961,0.08592638,
6521.032,0.08367311,
6519.104,0.08153267,
6517.175,0.0797248,
6515.246,0.07816765,
6513.317,0.07669776,
6511.389,0.07527535,
6509.460,0.07378375,
6507.531,0.07219724,
6505.603,0.07078452,
6503.674,0.06957226,
6501.745,0.06832188,
6499.816,0.0671248,
6497.888,0.06611784,
6495.959,0.0651936,
6494.030,0.06430695,
6492.101,0.06351428,
6490.173,0.06293372,
6488.244,0.06254137,
6486.315,0.06212395,
6484.386,0.06170745,
6482.458,0.06145009,
6480.529,0.06132147,
6478.600,0.06126975,
6476.672,0.06129795,
6474.743,0.06138811,
6472.814,0.06148645,
6470.885,0.06156667,
6468.957,0.0616887,
6467.028,0.0619752,
6465.099,0.06246829,
6463.170,0.06299976,
6461.242,0.06351528,
6459.313,0.06428543,
6457.384,0.06539022,
6455.456,0.06654048,
6453.527,0.06760556,
6451.598,0.06875234,
6449.669,0.07006629,
6447.741,0.07144332,
6445.812,0.07279605,
6443.883,0.07420451,
6441.954,0.07585471,
6440.026,0.0778194,
6438.097,0.07997443,
6436.168,0.08213593,
6434.240,0.08428397,
6432.311,0.08664205,
6430.382,0.08931218,
6428.453,0.09207241,
6426.525,0.09480808,
6424.596,0.09763739,
6422.667,0.1006585,
6420.738,0.103909,
6418.810,0.1073108,
6416.881,0.110764,
6414.952,0.1142501,
6413.024,0.1177061,
6411.095,0.1211786,
6409.166,0.1248943,
6407.237,0.1289336,
6405.309,0.1331387,
6403.380,0.1372952,
6401.451,0.1413151,
6399.522,0.1452376,
6397.594,0.1490564,
6395.665,0.152777,
6393.736,0.1564528,
6391.808,0.1600343,
6389.879,0.1634523,
6387.950,0.1665451,
6386.021,0.1690679,
6384.093,0.1711006,
6382.164,0.1728822,
6380.235,0.1743649,
6378.306,0.1753709,
6376.378,0.1759616,
6374.449,0.1763161,
6372.520,0.1762945,
6370.591,0.1756514,
6368.663,0.174429,
6366.734,0.1727701,
6364.805,0.17086,
6362.877,0.168764,
6360.948,0.1662532,
6359.019,0.1633356,
6357.090,0.1602871,
6355.162,0.1571335,
6353.233,0.1538128,
6351.304,0.1503816,
6349.375,0.1468294,
6347.447,0.1431671,
6345.518,0.1395957,
6343.589,0.1361603,
6341.661,0.1326654,
6339.732,0.1290526,
6337.803,0.1253681,
6335.874,0.1217055,
6333.946,0.1182094,
6332.017,0.1148617,
6330.088,0.1115869,
6328.159,0.1084363,
6326.231,0.1054307,
6324.302,0.1025025,
6322.373,0.09966677,
6320.445,0.09686868,
6318.516,0.09400487,
6316.587,0.09126166,
6314.658,0.08878228,
6312.730,0.08648774,
6310.801,0.08430889,
6308.872,0.08209509,
6306.943,0.07991599,
6305.015,0.07801337,
6303.086,0.07615641,
6301.157,0.07413526,
6299.229,0.07227279,
6297.300,0.07070827,
6295.371,0.06927824,
6293.442,0.0679948,
6291.514,0.06680991,
6289.585,0.06557804,
6287.656,0.06433418,
6285.727,0.06315991,
6283.799,0.06209053,
6281.870,0.06106223,
6279.941,0.06001931,
6278.013,0.05910644,
6276.084,0.05840229,
6274.155,0.05785965,
6272.226,0.05747623,
6270.298,0.05719027,
6268.369,0.05689056,
6266.440,0.05658429,
6264.511,0.05636623,
6262.583,0.05622564,
6260.654,0.05616578,
6258.725,0.05629622,
6256.796,0.05651407,
6254.868,0.05663313,
6252.939,0.05674155,
6251.010,0.05696912,
6249.082,0.05728883,
6247.153,0.05775177,
6245.224,0.05844239,
6243.295,0.05923397,
6241.367,0.0600602,
6239.438,0.06100143,
6237.509,0.06204573,
6235.580,0.06323621,
6233.652,0.06456149,
6231.723,0.06590589,
6229.794,0.06735062,
6227.866,0.06897555,
6225.937,0.07076897,
6224.008,0.0727382,
6222.079,0.0747852,
6220.151,0.07684873,
6218.222,0.07902646,
6216.293,0.08145602,
6214.364,0.08418026,
6212.436,0.08709577,
6210.507,0.09014399,
6208.578,0.09337214,
6206.650,0.09677092,
6204.721,0.1002743,
6202.792,0.10385,
6200.863,0.1075342,
6198.935,0.1114295,
6197.006,0.115535,
6195.077,0.1196705,
6193.148,0.1238225,
6191.220,0.1281931,
6189.291,0.1327607,
6187.362,0.1372947,
6185.434,0.1416677,
6183.505,0.1459137,
6181.576,0.1501158,
6179.647,0.1542004,
6177.719,0.1579881,
6175.790,0.1614477,
6173.861,0.1646217,
6171.932,0.1674692,
6170.004,0.1699229,
6168.075,0.1719044,
6166.146,0.1733353,
6164.218,0.174286,
6162.289,0.174918,
6160.360,0.1751286,
6158.431,0.1746579,
6156.503,0.1735893,
6154.574,0.1721368,
6152.645,0.1702818,
6150.716,0.1680786,
6148.788,0.1656335,
6146.859,0.1628808,
6144.930,0.1598511,
6143.001,0.1566778,
6141.073,0.1533714,
6139.144,0.149871,
6137.215,0.1461769,
6135.287,0.142407,
6133.358,0.1386145,
6131.429,0.1348173,
6129.500,0.1312021,
6127.572,0.1277525,
6125.643,0.1241962,
6123.714,0.1205659,
6121.785,0.1170691,
6119.857,0.1136634,
6117.928,0.1102688,
6115.999,0.1069483,
6114.071,0.1037349,
6112.142,0.1006226,
6110.213,0.09762035,
6108.284,0.09476662,
6106.356,0.09213213,
6104.427,0.08966831,
6102.498,0.08723518,
6100.569,0.08477493,
6098.641,0.08237986,
6096.712,0.08020989,
6094.783,0.0782505,
6092.855,0.07635624,
6090.926,0.07452483,
6088.997,0.07285819,
6087.068,0.07130901,
6085.140,0.06974135,
6083.211,0.06822598,
6081.282,0.06688613,
6079.353,0.06566241,
6077.425,0.064485,
6075.496,0.06333996,
6073.567,0.06222869,
6071.639,0.06121809,
6069.710,0.06043218,
6067.781,0.0598515,
6065.852,0.05921872,
6063.924,0.05847522,
6061.995,0.05791284,
6060.066,0.05762103,
6058.137,0.05737403,
6056.209,0.05703149,
6054.280,0.0566247,
6052.351,0.05623037,
6050.423,0.05591756,
6048.494,0.05572113,
6046.565,0.05563137,
6044.636,0.05563817,
6042.708,0.05574208,
6040.779,0.05586983,
6038.850,0.05598117,
6036.921,0.05623494,
6034.993,0.05675076,
6033.064,0.05735983,
6031.135,0.05789194,
6029.206,0.05845696,
6027.278,0.05918416,
6025.349,0.06008282,
6023.420,0.06116203,
6021.492,0.06234894,
6019.563,0.06356767,
6017.634,0.06486276,
6015.705,0.06629333,
6013.777,0.06789038,
6011.848,0.06963311,
6009.919,0.07145717,
6007.990,0.07341347,
6006.062,0.07560629,
6004.133,0.07795464,
6002.204,0.08043356,
6000.276,0.08318818,
5998.347,0.08616307,
5996.418,0.08926624,
5994.489,0.0926027,
5992.561,0.09611924,
5990.632,0.09964558,
5988.703,0.1033674,
5986.774,0.1075203,
5984.846,0.111902,
5982.917,0.1163349,
5980.988,0.1208653,
5979.060,0.1254272,
5977.131,0.1300038,
5975.202,0.1346772,
5973.273,0.1393332,
5971.345,0.1437935,
5969.416,0.1481224,
5967.487,0.1524219,
5965.558,0.1565409,
5963.630,0.16032,
5961.701,0.1638097,
5959.772,0.1669729,
5957.844,0.1696434,
5955.915,0.171859,
5953.986,0.1736571,
5952.057,0.174875,
5950.129,0.1754556,
5948.200,0.1754613,
5946.271,0.1749358,
5944.342,0.1739322,
5942.414,0.1724329,
5940.485,0.1704204,
5938.556,0.1680208,
5936.627,0.1652971,
5934.699,0.1622796,
5932.770,0.1591718,
5930.841,0.1559258,
5928.913,0.1522258,
5926.984,0.1481781,
5925.055,0.144188,
5923.126,0.1403973,
5921.198,0.1366572,
5919.269,0.1327254,
5917.340,0.1286176,
5915.411,0.1246679,
5913.483,0.1209778,
5911.554,0.1173686,
5909.625,0.1138041,
5907.697,0.110263,
5905.768,0.1066953,
5903.839,0.1032713,
5901.910,0.1000961,
5899.982,0.0970261,
5898.053,0.09397722,
5896.124,0.09094977,
5894.195,0.08799017,
5892.267,0.08524884,
5890.338,0.08276102,
5888.409,0.08034384,
5886.481,0.07787928,
5884.552,0.07550525,
5882.623,0.07333628,
5880.694,0.07128746,
5878.766,0.06930403,
5876.837,0.0674056,
5874.908,0.0656416,
5872.979,0.06406756,
5871.051,0.06262657,
5869.122,0.0612424,
5867.193,0.05991624,
5865.265,0.058617,
5863.336,0.05734145,
5861.407,0.05623417,
5859.478,0.05534107,
5857.550,0.05449762,
5855.621,0.05365061,
5853.692,0.0528762,
5851.763,0.05217657,
5849.835,0.05156487,
5847.906,0.05105169,
5845.977,0.05055568,
5844.049,0.05009902,
5842.120,0.04981353,
5840.191,0.04969473,
5838.262,0.04964434,
5836.334,0.04962471,
5834.405,0.04963568,
5832.476,0.04968955,
5830.547,0.0498307,
5828.619,0.05008109,
5826.690,0.05040703,
5824.761,0.05080232,
5822.832,0.05122966,
5820.904,0.05167076,
5818.975,0.05228294,
5817.046,0.05311714,
5815.118,0.05400881,
5813.189,0.05491105,
5811.260,0.05589838,
5809.331,0.05697978,
5807.403,0.0581571,
5805.474,0.05950516,
5803.545,0.06102468,
5801.616,0.06259004,
5799.688,0.06418206,
5797.759,0.06593093,
5795.830,0.06793878,
5793.902,0.07018443,
5791.973,0.07255266,
5790.044,0.07497121,
5788.115,0.07749606,
5786.187,0.08026497,
5784.258,0.08335239,
5782.329,0.08666319,
5780.400,0.09006664,
5778.472,0.09360878,
5776.543,0.09742858,
5774.614,0.1015355,
5772.686,0.1058195,
5770.757,0.1101714,
5768.828,0.1145943,
5766.899,0.1191676,
5764.971,0.1238441,
5763.042,0.1285047,
5761.113,0.1331285,
5759.184,0.1377247,
5757.256,0.1422752,
5755.327,0.1467651,
5753.398,0.1510895,
5751.470,0.1550591,
5749.541,0.1586163,
5747.612,0.161842,
5745.683,0.1647281,
5743.755,0.167102,
5741.826,0.1688509,
5739.897,0.170079,
5737.968,0.1708838,
5736.040,0.1711999,
5734.111,0.1709898,
5732.182,0.1702949,
5730.254,0.1691061,
5728.325,0.1674292,
5726.396,0.1653047,
5724.467,0.1627733,
5722.539,0.1599268,
5720.610,0.15685,
5718.681,0.1535799,
5716.752,0.1501026,
5714.824,0.1464572,
5712.895,0.1427892,
5710.966,0.1391321,
5709.037,0.1353663,
5707.109,0.1314453,
5705.180,0.1275192,
5703.251,0.1237324,
5701.323,0.1200575,
5699.394,0.1164305,
5697.465,0.1128246,
5695.536,0.1092353,
5693.608,0.1056414,
5691.679,0.102059,
5689.750,0.09862461,
5687.821,0.09540959,
5685.893,0.09235193,
5683.964,0.08944537,
5682.035,0.08668975,
5680.107,0.08395005,
5678.178,0.08115552,
5676.249,0.07847588,
5674.320,0.07610704,
5672.392,0.07398665,
5670.463,0.07188545,
5668.534,0.06973784,
5666.605,0.06766,
5664.677,0.06572163,
5662.748,0.06385741,
5660.819,0.06203406,
5658.891,0.06032581,
5656.962,0.05875047,
5655.033,0.0573374,
5653.104,0.05612475,
5651.176,0.05501061,
5649.247,0.05394118,
5647.318,0.05294547,
5645.389,0.05199127,
5643.461,0.05108139,
5641.532,0.05028173,
5639.603,0.04962551,
5637.675,0.04907133,
5635.746,0.04857836,
5633.817,0.04817846,
5631.888,0.04782313,
5629.960,0.04743433,
5628.031,0.04709446,
5626.102,0.04688473,
5624.173,0.04680263,
5622.245,0.0468155,
5620.316,0.04688577,
5618.387,0.04700849,
5616.459,0.04719046,
5614.530,0.04748902,
5612.601,0.04790692,
5610.672,0.0483366,
5608.744,0.04875879,
5606.815,0.04926723,
5604.886,0.04993542,
5602.957,0.05072784,
5601.029,0.05153295,
5599.100,0.05230986,
5597.171,0.05319957,
5595.242,0.05437621,
5593.314,0.05576271,
5591.385,0.05717593,
5589.456,0.05864102,
5587.528,0.06027797,
5585.599,0.06205544,
5583.670,0.06390309,
5581.741,0.06594273,
5579.813,0.06826309,
5577.884,0.07069566,
5575.955,0.07319935,
5574.026,0.07594075,
5572.098,0.07891999,
5570.169,0.0821179,
5568.240,0.08560668,
5566.312,0.08928667,
5564.383,0.09304152,
5562.454,0.09699044,
5560.525,0.1012706,
5558.597,0.1058355,
5556.668,0.1105639,
5554.739,0.1153815,
5552.810,0.1202991,
5550.882,0.1253349,
5548.953,0.1304594,
5547.024,0.1356637,
5545.096,0.1408587,
5543.167,0.1458803,
5541.238,0.1506842,
5539.309,0.155266,
5537.381,0.1595787,
5535.452,0.163603,
5533.523,0.167284,
5531.594,0.1704123,
5529.666,0.1727707,
5527.737,0.1744539,
5525.808,0.1756332,
5523.880,0.1761839,
5521.951,0.1761005,
5520.022,0.1755657,
5518.093,0.1744774,
5516.165,0.1727604,
5514.236,0.1706126,
5512.307,0.1680515,
5510.378,0.1649214,
5508.450,0.161334,
5506.521,0.1576118,
5504.592,0.153914,
5502.663,0.1501915,
5500.735,0.1463108,
5498.806,0.142193,
5496.877,0.1378883,
5494.949,0.1334669,
5493.020,0.1290846,
5491.091,0.1249094,
5489.162,0.1208665,
5487.234,0.1168578,
5485.305,0.1129404,
5483.376,0.1091338,
5481.447,0.1054071,
5479.519,0.1017141,
5477.590,0.09798893,
5475.661,0.09436567,
5473.733,0.09109795,
5471.804,0.08812281,
5469.875,0.08517475,
5467.946,0.08222805,
5466.018,0.07941027,
5464.089,0.07669041,
5462.160,0.07399993,
5460.231,0.0714726,
5458.303,0.0692303,
5456.374,0.06714953,
5454.445,0.06512617,
5452.517,0.06316812,
5450.588,0.06119185,
5448.659,0.05918258,
5446.730,0.05731978,
5444.802,0.05575198,
5442.873,0.05442526,
5440.944,0.05319665,
5439.015,0.05203994,
5437.087,0.05096416,
5435.158,0.04995545,
5433.229,0.0490144,
5431.301,0.04807717,
5429.372,0.04717283,
5427.443,0.04648253,
5425.514,0.04600729,
5423.586,0.04553929,
5421.657,0.04501162,
5419.728,0.04457696,
5417.799,0.04428457,
5415.871,0.04396494,
5413.942,0.04359319,
5412.013,0.04339672,
5410.085,0.04348973,
5408.156,0.0437041,
5406.227,0.04383939,
5404.298,0.04397869,
5402.370,0.04428399,
5400.441,0.04466334,
5398.512,0.04499507,
5396.583,0.04531084,
5394.655,0.04572422,
5392.726,0.04635093,
5390.797,0.04713307,
5388.868,0.04786662,
5386.940,0.04856892,
5385.011,0.04951047,
5383.082,0.05072812,
5381.154,0.05196229,
5379.225,0.05310718,
5377.296,0.05435219,
5375.367,0.05587395,
5373.439,0.05764169,
5371.510,0.05959065,
5369.581,0.06165965,
5367.652,0.06376949,
5365.724,0.06596839,
5363.795,0.06840949,
5361.866,0.07111558,
5359.938,0.07399832,
5358.009,0.07703127,
5356.080,0.08020385,
5354.151,0.08365817,
5352.223,0.08755949,
5350.294,0.09175422,
5348.365,0.09598376,
5346.436,0.100205,
5344.508,0.1048022,
5342.579,0.1099335,
5340.650,0.1150681,
5338.722,0.1201692,
5336.793,0.1257036,
5334.864,0.131517,
5332.935,0.1372014,
5331.007,0.1425695,
5329.078,0.1476145,
5327.149,0.1526406,
5325.220,0.1576768,
5323.292,0.1622502,
5321.363,0.1661716,
5319.434,0.1695176,
5317.506,0.1722454,
5315.577,0.1743588,
5313.648,0.1758549,
5311.719,0.1765416,
5309.791,0.1763341,
5307.862,0.1755521,
5305.933,0.1744313,
5304.004,0.1727121,
5302.076,0.1702071,
5300.147,0.1671827,
5298.218,0.1638935,
5296.290,0.1602987,
5294.361,0.1562877,
5292.432,0.1518686,
5290.503,0.147326,
5288.575,0.1429303,
5286.646,0.1385324,
5284.717,0.134025,
5282.788,0.129536,
5280.860,0.1251143,
5278.931,0.1207813,
5277.002,0.1165068,
5275.073,0.112244,
5273.145,0.1080495,
5271.216,0.1039731,
5269.287,0.1000386,
5267.359,0.0961856,
5265.430,0.09235732,
5263.501,0.08879516,
5261.572,0.08567511,
5259.644,0.08270713,
5257.715,0.07962348,
5255.786,0.0765686,
5253.857,0.07381274,
5251.929,0.07126218,
5250.000,0.0686618,
5248.071,0.06616516,
5246.143,0.06396577,
5244.214,0.06196019,
5242.285,0.06008572,
5240.356,0.05829497,
5238.428,0.05649904,
5236.499,0.05473724,
5234.570,0.05308812,
5232.641,0.05160492,
5230.713,0.05031148,
5228.784,0.04905628,
5226.855,0.04775786,
5224.927,0.04661798,
5222.998,0.04569859,
5221.069,0.04487003,
5219.140,0.04414203,
5217.212,0.04351313,
5215.283,0.04286634,
5213.354,0.04220174,
5211.425,0.04158825,
5209.497,0.04103247,
5207.568,0.04060525,
5205.639,0.04039034,
5203.711,0.0403192,
5201.782,0.04026482,
5199.853,0.04018863,
5197.924,0.04013087,
5195.996,0.04015087,
5194.067,0.04025056,
5192.138,0.04038239,
5190.209,0.04058146,
5188.281,0.04088597,
5186.352,0.04126621,
5184.423,0.04172265,
5182.495,0.04224488,
5180.566,0.0428168,
5178.637,0.04345436,
5176.708,0.04417061,
5174.780,0.04497888,
5172.851,0.0458764,
5170.922,0.04687848,
5168.993,0.04804192,
5167.065,0.04933534,
5165.136,0.05065399,
5163.207,0.05202044,
5161.278,0.05352611,
5159.350,0.05521367,
5157.421,0.05712563,
5155.492,0.05925664,
5153.564,0.06154295,
5151.635,0.0639733,
5149.706,0.06661253,
5147.777,0.06948011,
5145.849,0.07252108,
5143.920,0.07575994,
5141.991,0.07931526,
5140.062,0.08319875,
5138.134,0.08727372,
5136.205,0.09152009,
5134.276,0.09607338,
5132.348,0.1009756,
5130.419,0.1061582,
5128.490,0.1115484,
5126.561,0.1170765,
5124.633,0.1226907,
5122.704,0.1284136,
5120.775,0.1342546,
5118.846,0.1400818,
5116.918,0.1457665,
5114.989,0.1512623,
5113.060,0.1564745,
5111.132,0.161308,
5109.203,0.165716,
5107.274,0.1695948,
5105.345,0.1728235,
5103.417,0.1753231,
5101.488,0.1770467,
5099.559,0.1779956,
5097.630,0.1781595,
5095.702,0.1775273,
5093.773,0.1761405,
5091.844,0.1740843,
5089.916,0.1714632,
5087.987,0.1683278,
5086.058,0.1647123,
5084.129,0.1607133,
5082.201,0.1564247,
5080.272,0.1518997,
5078.343,0.147208,
5076.414,0.1424361,
5074.486,0.1376332,
5072.557,0.1328338,
5070.628,0.1280804,
5068.700,0.123377,
5066.771,0.1187014,
5064.842,0.1141115,
5062.913,0.1096985,
5060.985,0.1054322,
5059.056,0.1012647,
5057.127,0.0972307,
5055.198,0.09332307,
5053.270,0.08953948,
5051.341,0.08594885,
5049.412,0.08254209,
5047.483,0.07927088,
5045.555,0.07614046,
5043.626,0.07314281,
5041.697,0.07028828,
5039.769,0.06757647,
5037.840,0.06499135,
5035.911,0.06255176,
5033.982,0.06023168,
5032.054,0.05803197,
5030.125,0.05598167,
5028.196,0.05406794,
5026.267,0.05233078,
5024.339,0.05075198,
5022.410,0.04920695,
5020.481,0.04768816,
5018.553,0.04629958,
5016.624,0.04508156,
5014.695,0.04398207,
5012.766,0.04294565,
5010.838,0.04198812,
5008.909,0.04113338,
5006.980,0.04037573,
5005.051,0.03972443,
5003.123,0.03912856,
5001.194,0.03851901,
4999.265,0.03794993,
4997.337,0.03750568,
4995.408,0.03720993,
4993.479,0.03705232,
4991.550,0.03697056,
4989.622,0.03690214,
4987.693,0.03683998,
4985.764,0.03675067,
4983.835,0.0366469,
4981.907,0.03666064,
4979.978,0.03680145,
4978.049,0.03697794,
4976.121,0.03721256,
4974.192,0.03752546,
4972.263,0.03790002,
4970.334,0.03835377,
4968.406,0.0388759,
4966.477,0.03946483,
4964.548,0.04014981,
4962.619,0.04090854,
4960.691,0.04171475,
4958.762,0.04261146,
4956.833,0.04363656,
4954.904,0.0447703,
4952.976,0.04599834,
4951.047,0.04733976,
4949.118,0.04880762,
4947.190,0.05038171,
4945.261,0.05207365,
4943.332,0.05396808,
4941.403,0.05607939,
4939.475,0.05835446,
4937.546,0.06084509,
4935.617,0.06361619,
4933.688,0.0666094,
4931.760,0.06976601,
4929.831,0.07315776,
4927.902,0.07688485,
4925.974,0.08092526,
4924.045,0.08520272,
4922.116,0.0896887,
4920.187,0.09442146,
4918.259,0.09949003,
4916.330,0.1049277,
4914.401,0.1106716,
4912.472,0.1165893,
4910.544,0.1225667,
4908.615,0.1286318,
4906.686,0.1347992,
4904.758,0.140938,
4902.829,0.1469178,
4900.900,0.1526294,
4898.971,0.1579607,
4897.043,0.1628139,
4895.114,0.1670616,
4893.185,0.1706292,
4891.256,0.1735127,
4889.328,0.1756155,
4887.399,0.176802,
4885.470,0.1770584,
4883.542,0.1764557,
4881.613,0.1750769,
4879.684,0.1729485,
4877.755,0.1700777,
4875.827,0.1665776,
4873.898,0.1625905,
4871.969,0.1582113,
4870.040,0.1535227,
4868.112,0.1486237,
4866.183,0.1436096,
4864.254,0.1384855,
4862.326,0.1332605,
4860.397,0.1280641,
4858.468,0.1230066,
4856.539,0.1180853,
4854.611,0.113261,
4852.682,0.1085155,
4850.753,0.1038781,
4848.824,0.0994214,
4846.896,0.09517454,
4844.967,0.09108867,
4843.038,0.08712283,
4841.109,0.08330967,
4839.181,0.07972212,
4837.252,0.07635361,
4835.323,0.07311149,
4833.395,0.06996612,
4831.466,0.06698314,
4829.537,0.06421027,
4827.608,0.06160584,
4825.680,0.05911018,
4823.751,0.0567459,
4821.822,0.05454832,
4819.893,0.05249119,
4817.965,0.0505565,
4816.036,0.04873682,
4814.107,0.04701997,
4812.179,0.04544563,
4810.250,0.04403973,
4808.321,0.0427338,
4806.392,0.04149107,
4804.464,0.04037528,
4802.535,0.03939445,
4800.606,0.03847713,
4798.677,0.03759623,
4796.749,0.03677689,
4794.820,0.03605605,
4792.891,0.03544414,
4790.963,0.03490358,
4789.034,0.03438575,
4787.105,0.03389838,
4785.176,0.03351291,
4783.248,0.03324716,
4781.319,0.03304138,
4779.390,0.03287743,
4777.461,0.03276952,
4775.533,0.03271015,
4773.604,0.0327027,
4771.675,0.03273132,
4769.747,0.03278798,
4767.818,0.03291686,
4765.889,0.03311555,
4763.960,0.0333772,
4762.032,0.03371441,
4760.103,0.03407615,
4758.174,0.03446702,
4756.245,0.03495704,
4754.317,0.03554318,
4752.388,0.03619124,
4750.459,0.03690173,
4748.531,0.03768186,
4746.602,0.03855062,
4744.673,0.03953659,
4742.744,0.04061373,
4740.816,0.04176896,
4738.887,0.04303624,
4736.958,0.04440336,
4735.029,0.04589408,
4733.101,0.04756631,
4731.172,0.04937811,
4729.243,0.05130102,
4727.314,0.05342704,
4725.386,0.05582593,
4723.457,0.05846244,
4721.528,0.06130096,
4719.600,0.06436032,
4717.671,0.06769467,
4715.742,0.07134686,
4713.813,0.07530179,
4711.885,0.07953714,
4709.956,0.08406713,
4708.027,0.08893022,
4706.098,0.09414777,
4704.170,0.09968237,
4702.241,0.1054766,
4700.312,0.1115044,
4698.384,0.1177333,
4696.455,0.1240386,
4694.526,0.1302505,
4692.597,0.1362949,
4690.669,0.1421548,
4688.740,0.1477245,
4686.811,0.1528474,
4684.882,0.1574371,
4682.954,0.1614269,
4681.025,0.1647195,
4679.096,0.1672841,
4677.168,0.1691368,
4675.239,0.170202,
4673.310,0.1704166,
4671.381,0.1698599,
4669.453,0.168571,
4667.524,0.1665105,
4665.595,0.1637724,
4663.666,0.1605025,
4661.738,0.156713,
4659.809,0.1524283,
4657.880,0.1478189,
4655.952,0.1430034,
4654.023,0.1379602,
4652.094,0.1327441,
4650.165,0.1275155,
4648.237,0.1223509,
4646.308,0.1172283,
4644.379,0.1121363,
4642.450,0.1071256,
4640.522,0.1022829,
4638.593,0.09762526,
4636.664,0.09310972,
4634.736,0.08875066,
4632.807,0.08459616,
4630.878,0.08066502,
4628.949,0.07692892,
4627.021,0.07333799,
4625.092,0.06992935,
4623.163,0.06676436,
4621.234,0.06378074,
4619.306,0.0609063,
4617.377,0.05815677,
4615.448,0.05555381,
4613.519,0.05311838,
4611.591,0.05086854,
4609.662,0.0487843,
4607.733,0.04683137,
4605.805,0.04498811,
4603.876,0.04327672,
4601.947,0.04173756,
4600.018,0.04035314,
4598.090,0.03906405,
4596.161,0.03785544,
4594.232,0.03673989,
4592.303,0.03569625,
4590.375,0.0347441,
4588.446,0.03391246,
4586.517,0.03314158,
4584.589,0.0324114,
4582.660,0.03176708,
4580.731,0.03119459,
4578.802,0.03068252,
4576.874,0.0302519,
4574.945,0.02987362,
4573.016,0.02953434,
4571.087,0.02926125,
4569.159,0.02903969,
4567.230,0.02888655,
4565.301,0.02884728,
4563.373,0.02885304,
4561.444,0.02882561,
4559.515,0.02881225,
4557.586,0.02887353,
4555.658,0.02901012,
4553.729,0.02919624,
4551.800,0.02940903,
4549.871,0.02966718,
4547.943,0.03000599,
4546.014,0.03039248,
4544.085,0.03078697,
4542.157,0.0312613,
4540.228,0.03184863,
4538.299,0.0324758,
4536.370,0.03315054,
4534.442,0.03391049,
4532.513,0.03473557,
4530.584,0.03565389,
4528.655,0.03672425,
4526.727,0.03793486,
4524.798,0.03922617,
4522.869,0.04060012,
4520.940,0.04212743,
4519.012,0.04383839,
4517.083,0.04569241,
4515.154,0.04766997,
4513.226,0.04983735,
4511.297,0.05228294,
4509.368,0.05500521,
4507.439,0.05794231,
4505.511,0.06112054,
4503.582,0.06460906,
4501.653,0.06841275,
4499.724,0.07254852,
4497.796,0.07703545,
4495.867,0.08186397,
4493.938,0.08707298,
4492.010,0.09268326,
4490.081,0.09863324,
4488.152,0.104895,
4486.223,0.1114787,
4484.295,0.1182977,
4482.366,0.1252016,
4480.437,0.1320957,
4478.508,0.1389128,
4476.580,0.1455214,
4474.651,0.1517373,
4472.722,0.1573998,
4470.794,0.1623624,
4468.865,0.1664726,
4466.936,0.1696049,
4465.007,0.1716541,
4463.079,0.1725465,
4461.150,0.1722817,
4459.221,0.1709292,
4457.292,0.1685805,
4455.364,0.1653368,
4453.435,0.1613117,
4451.506,0.1566439,
4449.578,0.1515185,
4447.649,0.1460776,
4445.720,0.1403829,
4443.791,0.1345112,
4441.863,0.1285856,
4439.934,0.1227425,
4438.005,0.1170381,
4436.076,0.1114534,
4434.148,0.1060127,
4432.219,0.1007461,
4430.290,0.09565023,
4428.362,0.0907484,
4426.433,0.08606388,
4424.504,0.08160276,
4422.575,0.07739332,
4420.647,0.07344376,
4418.718,0.0697026,
4416.789,0.06614667,
4414.860,0.06279701,
4412.932,0.05963021,
4411.003,0.05663549,
4409.074,0.05384989,
4407.145,0.0512398,
4405.217,0.04875454,
4403.288,0.04644403,
4401.359,0.04433331,
4399.431,0.04235559,
4397.502,0.0405085,
4395.573,0.03885607,
4393.644,0.03737576,
4391.716,0.03598129,
4389.787,0.03465283,
4387.858,0.03343615,
4385.929,0.03233139,
4384.001,0.03130136,
4382.072,0.03036598,
4380.143,0.02956659,
4378.215,0.02889764,
4376.286,0.02829255,
4374.357,0.02768725,
4372.428,0.02710372,
4370.500,0.02659232,
4368.571,0.02617701,
4366.642,0.02584994,
4364.713,0.02556203,
4362.785,0.02528239,
4360.856,0.02502544,
4358.927,0.02481989,
4356.999,0.02467247,
4355.070,0.02455616,
4353.141,0.02447627,
4351.212,0.02447625,
4349.284,0.02452918,
4347.355,0.02455842,
4345.426,0.02459141,
4343.497,0.0247149,
4341.569,0.02492231,
4339.640,0.02517159,
4337.711,0.02544593,
4335.783,0.02572084,
4333.854,0.02602955,
4331.925,0.02642862,
4329.996,0.0268833,
4328.068,0.02736623,
4326.139,0.02792821,
4324.210,0.02859288,
4322.281,0.02933389,
4320.353,0.03012599,
4318.424,0.03096372,
4316.495,0.0318788,
4314.567,0.03289784,
4312.638,0.03400265,
4310.709,0.03519047,
4308.780,0.03648303,
4306.852,0.03790269,
4304.923,0.03950793,
4302.994,0.041327,
4301.065,0.04330122,
4299.137,0.04540392,
4297.208,0.04768468,
4295.279,0.05018567,
4293.350,0.05291861,
4291.422,0.05589068,
4289.493,0.05911994,
4287.564,0.06260995,
4285.636,0.06635156,
4283.707,0.07037947,
4281.778,0.07471474,
4279.849,0.07933377,
4277.921,0.08428756,
4275.992,0.08963002,
4274.063,0.09529039,
4272.134,0.1012003,
4270.206,0.1073272,
4268.277,0.1135875,
4266.348,0.1198963,
4264.420,0.1261744,
4262.491,0.132315,
4260.562,0.1382056,
4258.633,0.1436497,
4256.705,0.1483687,
4254.776,0.152193,
4252.847,0.1550392,
4250.918,0.1567969,
4248.990,0.1574149,
4247.061,0.1569087,
4245.132,0.1552899,
4243.204,0.1525936,
4241.275,0.1489549,
4239.346,0.1446021,
4237.417,0.139712,
4235.489,0.1344114,
4233.560,0.1288629,
4231.631,0.1231714,
4229.702,0.1174017,
4227.774,0.1116809,
4225.845,0.1061121,
4223.916,0.1007429,
4221.988,0.09561614,
4220.059,0.09072744,
4218.130,0.08603464,
4216.201,0.08154299,
4214.273,0.0773019,
4212.344,0.073317,
4210.415,0.06952637,
4208.486,0.06588871,
4206.558,0.0624315,
4204.629,0.05918933,
4202.700,0.05613187,
4200.772,0.05319829,
4198.843,0.05039673,
4196.914,0.04778787,
4194.985,0.04538457,
4193.057,0.04313219,
4191.128,0.04100106,
4189.199,0.03902787,
4187.270,0.03722743,
4185.342,0.03557881,
4183.413,0.03407409,
4181.484,0.03269349,
4179.555,0.03141341,
4177.627,0.03023904,
4175.698,0.02916118,
4173.769,0.02814501,
4171.841,0.0271975,
4169.912,0.02636142,
4167.983,0.02563067,
4166.054,0.02496484,
4164.126,0.02436755,
4162.197,0.02384783,
4160.268,0.02339148,
4158.339,0.02299325,
4156.411,0.0226234,
4154.482,0.02226152,
4152.553,0.02193262,
4150.625,0.02164454,
4148.696,0.02140084,
4146.767,0.02121756,
4144.838,0.02108519,
4142.910,0.02098413,
4140.981,0.0209141,
4139.052,0.02087862,
4137.123,0.02088314,
4135.195,0.02092568,
4133.266,0.02097115,
4131.337,0.02103066,
4129.409,0.02116804,
4127.480,0.02136849,
4125.551,0.02158829,
4123.622,0.02183369,
4121.694,0.02209671,
4119.765,0.0223914,
4117.836,0.0227732,
4115.907,0.02322335,
4113.979,0.02368262,
4112.050,0.02416845,
4110.121,0.02472047,
4108.193,0.02535144,
4106.264,0.02606517,
4104.335,0.02683577,
4102.406,0.02766558,
4100.478,0.02861737,
4098.549,0.02970904,
4096.620,0.0309052,
4094.691,0.03218861,
4092.763,0.03355449,
4090.834,0.03504135,
4088.905,0.03672619,
4086.977,0.0386176,
4085.048,0.04069042,
4083.119,0.0429764,
4081.190,0.04550489,
4079.262,0.04827497,
4077.333,0.05133665,
4075.404,0.05476138,
4073.475,0.05856742,
4071.547,0.06277865,
4069.618,0.06743245,
4067.689,0.07254437,
4065.760,0.07812304,
4063.832,0.08411839,
4061.903,0.09043097,
4059.974,0.09704023,
4058.046,0.1039532,
4056.117,0.1110299,
4054.188,0.1180647,
4052.259,0.1249267,
4050.331,0.1314689,
4048.402,0.1374501,
4046.473,0.1426736,
4044.544,0.1470676,
4042.616,0.1505047,
4040.687,0.1527959,
4038.758,0.1538664,
4036.830,0.1537259,
4034.901,0.1524066,
4032.972,0.1499586,
4031.043,0.1464635,
4029.115,0.1420767,
4027.186,0.1370117,
4025.257,0.1315021,
4023.328,0.1257244,
4021.400,0.1197786,
4019.471,0.1138073,
4017.542,0.1079598,
4015.614,0.1022781,
4013.685,0.09677508,
4011.756,0.09148953,
4009.827,0.08644793,
4007.899,0.08165222,
4005.970,0.07707056,
4004.041,0.07270656,
4002.112,0.06860165,
4000.184,0.06471655,
3998.255,0.06098846,
3996.326,0.0574336,
3994.398,0.05406275,
3992.469,0.05085877,
3990.540,0.04785842,
3988.611,0.04509661,
3986.683,0.0425484,
3984.754,0.04018618,
3982.825,0.03800118,
3980.896,0.0359767,
3978.968,0.03407427,
3977.039,0.0322759,
3975.110,0.03063828,
3973.181,0.02920958,
3971.253,0.02793791,
3969.324,0.0267437,
3967.395,0.02561012,
3965.467,0.02460728,
3963.538,0.02377915,
3961.609,0.02305423,
3959.680,0.02236665,
3957.752,0.02171376,
3955.823,0.02109854,
3953.894,0.02051014,
3951.965,0.0199727,
3950.037,0.01951918,
3948.108,0.01914306,
3946.179,0.01882907,
3944.251,0.01854561,
3942.322,0.01831976,
3940.393,0.01817051,
3938.464,0.01801198,
3936.536,0.0177887,
3934.607,0.01752921,
3932.678,0.01734583,
3930.749,0.01730979,
3928.821,0.01733319,
3926.892,0.01732424,
3924.963,0.01731992,
3923.035,0.01737413,
3921.106,0.01744677,
3919.177,0.01749843,
3917.248,0.01758789,
3915.320,0.01781742,
3913.391,0.01812228,
3911.462,0.01838333,
3909.533,0.01861998,
3907.605,0.01881484,
3905.676,0.01896714,
3903.747,0.01922649,
3901.819,0.0197204,
3899.890,0.02039553,
3897.961,0.02114206,
3896.032,0.02184119,
3894.104,0.02237924,
3892.175,0.02294188,
3890.246,0.02376196,
3888.317,0.02463246,
3886.389,0.02547846,
3884.460,0.02660636,
3882.531,0.02792736,
3880.603,0.02929994,
3878.674,0.03088484,
3876.745,0.03253686,
3874.816,0.03415822,
3872.888,0.03580726,
3870.959,0.03767476,
3869.030,0.04017872,
3867.101,0.04309459,
3865.173,0.04610765,
3863.244,0.04959159,
3861.315,0.05370406,
3859.386,0.05794739,
3857.458,0.06140774,
3855.529,0.06408035,
3853.600,0.06847799,
3851.672,0.07634147,
3849.743,0.08540976,
3847.814,0.09366936,
3845.885,0.1010972,
3843.957,0.1082293,
3842.028,0.1150144,
3840.099,0.1211057,
3838.170,0.1276176,
3836.242,0.135371,
3834.313,0.1425981,
3832.384,0.147992,
3830.456,0.1517617,
3828.527,0.1536018,
3826.598,0.1532771,
3824.669,0.1504742,
3822.741,0.145292,
3820.812,0.1400788,
3818.883,0.1354155,
3816.954,0.1298188,
3815.026,0.124619,
3813.097,0.1202646,
3811.168,0.1145677,
3809.240,0.1071034,
3807.311,0.099641,
3805.382,0.09342441,
3803.453,0.08735904,
3801.525,0.08129886,
3799.596,0.07661121,
3797.667,0.07253768,
3795.738,0.06820767,
3793.810,0.06405958,
3791.881,0.06015372,
3789.952,0.0563255,
3788.024,0.05261502,
3786.095,0.04911921,
3784.166,0.04591434,
3782.237,0.04292862,
3780.309,0.04008472,
3778.380,0.03757502,
3776.451,0.0353909,
3774.522,0.03325445,
3772.594,0.03109592,
3770.665,0.02904655,
3768.736,0.02733042,
3766.808,0.02593792,
3764.879,0.02471783,
3762.950,0.02359044,
3761.021,0.02247901,
3759.093,0.02145874,
3757.164,0.02058547,
3755.235,0.019682,
3753.306,0.01859767,
3751.378,0.017568,
3749.449,0.01693854,
3747.520,0.01648801,
3745.591,0.01591811,
3743.663,0.01556309,
3741.734,0.01556181,
3739.805,0.01539078,
3737.877,0.01491256,
3735.948,0.01446862,
3734.019,0.01423261,
3732.090,0.01416426,
3730.162,0.01416715,
3728.233,0.01410999,
3726.304,0.01396212,
3724.375,0.01383319,
3722.447,0.0137606,
3720.518,0.01373719,
3718.589,0.0137694,
3716.661,0.01377712,
3714.732,0.01366208,
3712.803,0.01347579,
3710.874,0.01346314,
3708.946,0.01370021,
3707.017,0.01401192,
3705.088,0.01423228,
3703.159,0.01433953,
3701.231,0.01449693,
3699.302,0.01476201,
3697.373,0.01504716,
3695.445,0.01530086,
3693.516,0.01547598,
3691.587,0.0155658,
3689.658,0.01575125,
3687.730,0.01628491,
3685.801,0.01705832,
3683.872,0.01778865,
3681.943,0.01840319,
3680.015,0.01890045,
3678.086,0.01925122,
3676.157,0.01972209,
3674.229,0.02064552,
3672.300,0.02171842,
3670.371,0.02283718,
3668.442,0.02434706,
3666.514,0.02610198,
3664.585,0.02783808,
3662.656,0.0296016,
3660.727,0.0314362,
3658.799,0.03327684,
3656.870,0.03535949,
3654.941,0.037925,
3653.013,0.04048978,
3651.084,0.04292119,
3649.155,0.04618305,
3647.226,0.05085149,
3645.298,0.05621848,
3643.369,0.06156989,
3641.440,0.06689957,
3639.511,0.07242396,
3637.583,0.07813185,
3635.654,0.08387772,
3633.725,0.08931488,
3631.796,0.09366968,
3629.868,0.09765401,
3627.939,0.1033406,
3626.010,0.1097981,
3624.082,0.1142473,
3622.153,0.1159887,
3620.224,0.1162348,
3618.295,0.1163886,
3616.367,0.1160935,
3614.438,0.1142896,
3612.509,0.1112137,
3610.580,0.107444,
3608.652,0.1035003,
3606.723,0.09980486,
3604.794,0.09582668,
3602.866,0.09104453,
3600.937,0.08589227,
3599.008,0.08087067,
3597.079,0.07597337,
3595.151,0.07123809,
3593.222,0.06681702,
3591.293,0.06249863,
3589.364,0.05809642,
3587.436,0.05405984,
3585.507,0.05076616,
3583.578,0.04782866,
3581.650,0.0448418,
3579.721,0.04186984,
3577.792,0.03909626,
3575.863,0.03655545,
3573.935,0.03419783,
3572.006,0.03195104,
3570.077,0.02973017,
3568.148,0.02764934,
3566.220,0.02595081,
3564.291,0.0245904,
3562.362,0.02331696,
3560.434,0.02206876,
3558.505,0.02093568,
3556.576,0.01993047,
3554.647,0.01899161,
3552.719,0.01809149,
3550.790,0.01726858,
3548.861,0.01651186,
3546.932,0.01579672,
3545.004,0.0151973,
3543.075,0.01472248,
3541.146,0.01426507,
3539.217,0.01379112,
3537.289,0.01336888,
3535.360,0.01303396,
3533.431,0.01274716,
3531.503,0.01246289,
3529.574,0.01219149,
3527.645,0.01195733,
3525.716,0.01174025,
3523.788,0.01154603,
3521.859,0.01140215,
3519.930,0.01127877,
3518.001,0.01114504,
3516.073,0.01102488,
3514.144,0.01093836,
3512.215,0.01087234,
3510.287,0.01082542,
3508.358,0.0108094,
3506.429,0.01081918,
3504.500,0.01084263,
3502.572,0.01088076,
3500.643,0.01092947,
3498.714,0.01099354,
3496.785,0.01108945,
3494.857,0.01120063,
3492.928,0.01131578,
3490.999,0.01145814,
3489.071,0.01166162,
3487.142,0.01192365,
3485.213,0.01217781,
3483.284,0.01239858,
3481.356,0.01264686,
3479.427,0.01296258,
3477.498,0.01333189,
3475.569,0.0137548,
3473.641,0.0142289,
3471.712,0.01472945,
3469.783,0.01527044,
3467.855,0.01587689,
3465.926,0.01654197,
3463.997,0.01726548,
3462.068,0.01806832,
3460.140,0.01897804,
3458.211,0.02001001,
3456.282,0.02116125,
3454.353,0.02244796,
3452.425,0.02389548,
3450.496,0.0254889,
3448.567,0.02725144,
3446.639,0.02926052,
3444.710,0.03152716,
3442.781,0.03404213,
3440.852,0.03684415,
3438.924,0.03994932,
3436.995,0.04333686,
3435.066,0.04698855,
3433.137,0.05086732,
3431.209,0.05486841,
3429.280,0.05885333,
3427.351,0.06268751,
3425.422,0.06619485,
3423.494,0.06916683,
3421.565,0.07143328,
3419.636,0.07289911,
3417.708,0.07354438,
3415.779,0.0734385,
3413.850,0.07277849,
3411.921,0.07184327,
3409.993,0.07090871,
3408.064,0.07021454,
3406.135,0.06991173,
3404.206,0.07006,
3402.278,0.07062057,
3400.349,0.07136997,
3398.420,0.07197947,
3396.492,0.07216754,
3394.563,0.07173406,
3392.634,0.07059741,
3390.705,0.06879234,
3388.777,0.066402,
3386.848,0.06354031,
3384.919,0.06037794,
3382.990,0.05708282,
3381.062,0.05374172,
3379.133,0.05041371,
3377.204,0.04715258,
3375.276,0.04398504,
3373.347,0.04095217,
3371.418,0.03808836,
3369.489,0.0353931,
3367.561,0.03287278,
3365.632,0.03054786,
3363.703,0.02842192,
3361.774,0.02646437,
3359.846,0.0246385,
3357.917,0.0229574,
3355.988,0.02146028,
3354.060,0.02012964,
3352.131,0.01892433,
3350.202,0.01784333,
3348.273,0.0168766,
3346.345,0.01598764,
3344.416,0.01516378,
3342.487,0.01442311,
3340.558,0.01378331,
3338.630,0.01323434,
3336.701,0.0127319,
3334.772,0.01224477,
3332.844,0.01179128,
3330.915,0.0113976,
3328.986,0.01106839,
3327.057,0.01077935,
3325.129,0.01051158,
3323.200,0.01029032,
3321.271,0.0101104,
3319.342,0.009921695,
3317.414,0.009720579,
3315.485,0.009551911,
3313.556,0.00943652,
3311.627,0.009342118,
3309.699,0.009234831,
3307.770,0.009133637,
3305.841,0.009076249,
3303.913,0.009056804,
3301.984,0.009052822,
3300.055,0.009060778,
3298.126,0.009068796,
3296.198,0.009066893,
3294.269,0.00906674,
3292.340,0.009096106,
3290.411,0.009172098,
3288.483,0.009255116,
3286.554,0.009314817,
3284.625,0.009387809,
3282.697,0.00949698,
3280.768,0.009632778,
3278.839,0.009780014,
3276.910,0.009926205,
3274.982,0.0101012,
3273.053,0.01033984,
3271.124,0.01062398,
3269.195,0.01092904,
3267.267,0.01126054,
3265.338,0.01161964,
3263.409,0.01199684,
3261.481,0.01241103,
3259.552,0.01289548,
3257.623,0.01344585,
3255.694,0.01404469,
3253.766,0.01470592,
3251.837,0.01544916,
3249.908,0.01627889,
3247.979,0.01719596,
3246.051,0.0182195,
3244.122,0.01938903,
3242.193,0.02072379,
3240.265,0.02222502,
3238.336,0.02391176,
3236.407,0.02582967,
3234.478,0.0280353,
3232.550,0.03056182,
3230.621,0.03343956,
3228.692,0.03672996,
3226.763,0.04048429,
3224.835,0.04472385,
3222.906,0.04946601,
3220.977,0.05471883,
3219.049,0.06045882,
3217.120,0.0666112,
3215.191,0.07305417,
3213.262,0.07961038,
3211.334,0.08601321,
3209.405,0.09194554,
3207.476,0.09707937,
3205.547,0.1010846,
3203.619,0.1036866,
3201.690,0.104707,
3199.761,0.1040856,
3197.832,0.1019332,
3195.904,0.09852143,
3193.975,0.09416313,
3192.046,0.08913018,
3190.118,0.08367965,
3188.189,0.0780581,
3186.260,0.07245377,
3184.331,0.06699032,
3182.403,0.06175283,
3180.474,0.05679658,
3178.545,0.05215948,
3176.616,0.04785602,
3174.688,0.04386815,
3172.759,0.04019077,
3170.830,0.0368252,
3168.902,0.03374519,
3166.973,0.03092886,
3165.044,0.02837018,
3163.115,0.02604617,
3161.187,0.02391294,
3159.258,0.02196721,
3157.329,0.02024113,
3155.400,0.01871449,
3153.472,0.01734878,
3151.543,0.01614525,
3149.614,0.01508759,
3147.686,0.01413974,
3145.757,0.01329697,
3143.828,0.01255213,
3141.899,0.01187474,
3139.971,0.01126296,
3138.042,0.01073646,
3136.113,0.010278,
3134.184,0.009861699,
3132.256,0.009491318,
3130.327,0.009163038,
3128.398,0.008865785,
3126.470,0.008587946,
3124.541,0.008311968,
3122.612,0.008061482,
3120.683,0.007875824,
3118.755,0.007737197,
3116.826,0.007605182,
3114.897,0.007474628,
3112.968,0.007357574,
3111.040,0.00725866,
3109.111,0.007179548,
3107.182,0.007117787,
3105.253,0.007069157,
3103.325,0.007040037,
3101.396,0.007032373,
3099.467,0.007032429,
3097.539,0.007036081,
3095.610,0.007044375,
3093.681,0.007064474,
3091.752,0.007123156,
3089.824,0.0072143,
3087.895,0.007306709,
3085.966,0.007413988,
3084.037,0.00756104,
3082.109,0.007736746,
3080.180,0.007921446,
3078.251,0.008107071,
3076.323,0.008299433,
3074.394,0.008526764,
3072.465,0.008819623,
3070.536,0.009177319,
3068.608,0.009570257,
3066.679,0.009990602,
3064.750,0.01047402,
3062.821,0.01103695,
3060.893,0.01165584,
3058.964,0.01232704,
3057.035,0.01309397,
3055.107,0.01401118,
3053.178,0.01510145,
3051.249,0.01637735,
3049.320,0.01787603,
3047.392,0.01964318,
3045.463,0.02173861,
3043.534,0.02423567,
3041.605,0.02718614,
3039.677,0.03064392,
3037.748,0.03465413,
3035.819,0.03919104,
3033.891,0.04417006,
3031.962,0.04943281,
3030.033,0.05472072,
3028.104,0.05969004,
3026.176,0.063896,
3024.247,0.06685872,
3022.318,0.06819931,
3020.389,0.06772256,
3018.461,0.06545141,
3016.532,0.06162053,
3014.603,0.05665915,
3012.675,0.05109252,
3010.746,0.04536753,
3008.817,0.03979323,
3006.888,0.03457087,
3004.960,0.02980483,
3003.031,0.02554109,
3001.102,0.0218,
2999.173,0.01857619,
2997.245,0.01584841,
2995.316,0.01357107,
2993.387,0.01169927,
2991.458,0.01019377,
2989.530,0.008961525,
2987.601,0.007911924,
2985.672,0.007026892,
2983.744,0.006286864,
2981.815,0.005635177,
2979.886,0.005061167,
2977.957,0.004581078,
2976.029,0.004138121,
2974.100,0.003679989,
2972.171,0.003207749,
2970.242,0.002705746,
2968.314,0.002191393,
2966.385,0.001729641,
2964.456,0.00134489,
2962.528,0.001031248,
2960.599,0.0007978024,
2958.670,0.0006320039,
2956.741,0.0004986445,
2954.813,0.0003922025,
2952.884,0.0003234261,
2950.955,0.0002762265,
2949.026,0.0002241414,
2947.098,0.0001705678,
2945.169,0.0001432791,
2943.240,0.0001455735,
2941.312,0.0001345714,
2939.383,0.0001089187,
2937.454,9.663874E-5,
2935.525,9.7208E-5,
2933.597,9.990023E-5,
2931.668,0.0001249327,
2929.739,0.0001862746,
2927.810,0.0002705029,
2925.882,0.0003654853,
2923.953,0.0004792978,
2922.024,0.000631117,
2920.096,0.0008418021,
2918.167,0.001142284,
2916.238,0.001525385,
2914.309,0.001936137,
2912.381,0.002333035,
2910.452,0.00268233,
2908.523,0.002964712,
2906.594,0.003205544,
2904.666,0.003432235,
2902.737,0.003635567,
2900.808,0.003809869,
2898.880,0.003963386,
2896.951,0.004071253,
2895.022,0.004109506,
2893.093,0.004088241,
2891.165,0.004016349,
2889.236,0.003904342,
2887.307,0.003759613,
2885.378,0.003567491,
2883.450,0.00331732,
2881.521,0.003029746,
2879.592,0.00274038,
2877.663,0.002456056,
2875.735,0.002158692,
2873.806,0.001849815,
2871.877,0.001552795,
2869.949,0.001274077,
2868.020,0.001012573,
2866.091,0.0008075211,
2864.162,0.0007138085,
2862.234,0.0007488007,
2860.305,0.0008964645,
2858.376,0.001154495,
2856.447,0.0015826,
2854.519,0.002243389,
2852.590,0.003110462,
2850.661,0.004062635,
2848.733,0.004921109,
2846.804,0.005522957,
2844.875,0.005800345,
2842.946,0.005795588,
2841.018,0.005621046,
2839.089,0.005381991,
2837.160,0.005132129,
2835.231,0.004906344,
2833.303,0.004728268,
2831.374,0.004593573,
2829.445,0.004493685,
2827.517,0.004424016,
2825.588,0.004379526,
2823.659,0.004364637,
2821.730,0.00437658,
2819.802,0.004400543,
2817.873,0.004431975,
2815.944,0.004473433,
2814.015,0.004521979,
2812.087,0.004576127,
2810.158,0.004642623,
2808.229,0.004733084,
2806.301,0.00485434,
2804.372,0.004998771,
2802.443,0.005144849,
2800.514,0.005292641,
2798.586,0.00546936,
2796.657,0.005672967,
2794.728,0.005889822,
2792.799,0.006145095,
2790.871,0.006454958,
2788.942,0.006806652,
2787.013,0.007210022,
2785.085,0.007682794,
2783.156,0.00822254,
2781.227,0.00882942,
2779.298,0.009512633,
2777.370,0.01029118,
2775.441,0.01118921,
2773.512,0.01222897,
2771.583,0.01345077,
2769.655,0.0148968,
2767.726,0.01659308,
2765.797,0.01857731,
2763.868,0.02090641,
2761.940,0.02366232,
2760.011,0.02696429,
2758.082,0.03096396,
2756.154,0.0358243,
2754.225,0.04161802,
2752.296,0.04821065,
2750.367,0.05528332,
2748.439,0.06239428,
2746.510,0.06896681,
2744.581,0.07433308,
2742.652,0.07789882,
2740.724,0.0793,
2738.795,0.07847719,
2736.866,0.07571189,
2734.938,0.07155615,
2733.009,0.06660391,
2731.080,0.06131091,
2729.151,0.05597614,
2727.223,0.05078246,
2725.294,0.04582609,
2723.365,0.04115158,
2721.436,0.03680243,
2719.508,0.03282672,
2717.579,0.02925773,
2715.650,0.02610668,
2713.722,0.02333485,
2711.793,0.02086183,
2709.864,0.01863231,
2707.935,0.01665564,
2706.007,0.01495446,
2704.078,0.01348755,
2702.149,0.01218925,
2700.220,0.01104775,
2698.292,0.01007464,
2696.363,0.00925595,
2694.434,0.008570417,
2692.506,0.007989499,
2690.577,0.007461374,
2688.648,0.006955271,
2686.719,0.006487779,
2684.791,0.006094519,
2682.862,0.005788802,
2680.933,0.005534587,
2679.004,0.005294704,
2677.076,0.005078693,
2675.147,0.004910402,
2673.218,0.00478579,
2671.290,0.004680201,
2669.361,0.004588719,
2667.432,0.004507854,
2665.503,0.004402899,
2663.575,0.004270755,
2661.646,0.004162925,
2659.717,0.00409227,
2657.788,0.004020146,
2655.860,0.003945988,
2653.931,0.003893128,
2652.002,0.003844257,
2650.073,0.00378592,
2648.145,0.003739905,
2646.216,0.003712874,
2644.287,0.003697561,
2642.359,0.003702743,
2640.430,0.003721226,
2638.501,0.003731486,
2636.572,0.003730313,
2634.644,0.003720408,
2632.715,0.003711391,
2630.786,0.00372007,
2628.857,0.00375282,
2626.929,0.003801061,
2625.000,0.003863956,
2623.071,0.003946243,
2621.143,0.004020649,
2619.214,0.004069705,
2617.285,0.004118731,
2615.356,0.004190609,
2613.428,0.004293341,
2611.499,0.004418517,
2609.570,0.004544194,
2607.641,0.004664392,
2605.713,0.004798381,
2603.784,0.004972531,
2601.855,0.005182351,
2599.927,0.005392696,
2597.998,0.005615667,
2596.069,0.00591346,
2594.140,0.00628499,
2592.212,0.006675859,
2590.283,0.007077847,
2588.354,0.007505631,
2586.425,0.007962876,
2584.497,0.00848687,
2582.568,0.009135372,
2580.639,0.009916237,
2578.711,0.01079381,
2576.782,0.0117629,
2574.853,0.01288373,
2572.924,0.0142208,
2570.996,0.01579221,
2569.067,0.01764136,
2567.138,0.01984485,
2565.209,0.02245573,
2563.281,0.02556627,
2561.352,0.0293214,
2559.423,0.03382305,
2557.494,0.03906693,
2555.566,0.04493187,
2553.637,0.05119921,
2551.708,0.05752485,
2549.780,0.06339766,
2547.851,0.06822872,
2545.922,0.0715191,
2543.993,0.0729586,
2542.065,0.07248832,
2540.136,0.07032021,
2538.207,0.06682627,
2536.278,0.06243053,
2534.350,0.05757456,
2532.421,0.0526427,
2530.492,0.04786961,
2528.564,0.04334872,
2526.635,0.03912494,
2524.706,0.03523884,
2522.777,0.03170364,
2520.849,0.02849875,
2518.920,0.02559466,
2516.991,0.02296458,
2515.062,0.02058034,
2513.134,0.01840907,
2511.205,0.01643066,
2509.276,0.01466719,
2507.348,0.01313543,
2505.419,0.01180213,
2503.490,0.010628,
2501.561,0.009592378,
2499.633,0.008708596,
2497.704,0.007992428,
2495.775,0.00738122,
2493.846,0.006799321,
2491.918,0.006274913,
2489.989,0.005869993,
2488.060,0.005553372,
2486.132,0.005265266,
2484.203,0.005011121,
2482.274,0.004780757,
2480.345,0.004531869,
2478.417,0.004288231,
2476.488,0.004098473,
2474.559,0.003949486,
2472.630,0.003804543,
2470.702,0.00366048,
2468.773,0.00353657,
2466.844,0.003435157,
2464.916,0.00333679,
2462.987,0.003231635,
2461.058,0.003141639,
2459.129,0.003078493,
2457.201,0.003020145,
2455.272,0.002965706,
2453.343,0.002920453,
2451.414,0.002870442,
2449.486,0.002821865,
2447.557,0.002794415,
2445.628,0.00279501,
2443.699,0.002802216,
2441.771,0.00278844,
2439.842,0.002755516,
2437.913,0.002724798,
2435.985,0.002718239,
2434.056,0.002724756,
2432.127,0.002718221,
2430.198,0.002713949,
2428.270,0.00273824,
2426.341,0.002781881,
2424.412,0.0028198,
2422.483,0.002843941,
2420.555,0.002864955,
2418.626,0.002893963,
2416.697,0.002934456,
2414.769,0.002996844,
2412.840,0.003080314,
2410.911,0.003160571,
2408.982,0.003234504,
2407.054,0.003307504,
2405.125,0.003385259,
2403.196,0.003495759,
2401.267,0.003634091,
2399.339,0.003764207,
2397.410,0.003886817,
2395.481,0.004032481,
2393.553,0.004213647,
2391.624,0.004422078,
2389.695,0.004656705,
2387.766,0.004922194,
2385.838,0.005213142,
2383.909,0.005522203,
2381.980,0.005850664,
2380.051,0.006198007,
2378.123,0.006562239,
2376.194,0.00696759,
2374.265,0.007444889,
2372.337,0.007995035,
2370.408,0.008631127,
2368.479,0.009388258,
2366.550,0.01028817,
2364.622,0.01136629,
2362.693,0.01268586,
2360.764,0.01432421,
2358.835,0.01638344,
2356.907,0.01902174,
2354.978,0.02243813,
2353.049,0.0267759,
2351.121,0.03184679,
2349.192,0.03698891,
2347.263,0.04162991,
2345.334,0.04569739,
2343.406,0.04917959,
2341.477,0.0517745,
2339.548,0.05319105,
2337.619,0.05337557,
2335.691,0.05236781,
2333.762,0.05024783,
2331.833,0.04728737,
2329.904,0.04392324,
2327.976,0.04049839,
2326.047,0.03714659,
2324.118,0.0338902,
2322.190,0.03073067,
2320.261,0.02769434,
2318.332,0.02483436,
2316.403,0.0221856,
2314.475,0.0197587,
2312.546,0.01755098,
2310.617,0.01555082,
2308.688,0.01376258,
2306.760,0.01219637,
2304.831,0.01084768,
2302.902,0.009692947,
2300.974,0.008688219,
2299.045,0.007810052,
2297.116,0.007067005,
2295.187,0.006447845,
2293.259,0.005928286,
2291.330,0.005497521,
2289.401,0.005121203,
2287.472,0.004763831,
2285.544,0.004442058,
2283.615,0.004172122,
2281.686,0.003929509,
2279.758,0.003698184,
2277.829,0.003494462,
2275.900,0.003330286,
2273.971,0.003186024,
2272.043,0.003042966,
2270.114,0.002917008,
2268.185,0.002820034,
2266.256,0.002730052,
2264.328,0.002631391,
2262.399,0.002540847,
2260.470,0.002470325,
2258.542,0.002406538,
2256.613,0.002345758,
2254.684,0.002299079,
2252.755,0.002260617,
2250.827,0.002216042,
2248.898,0.002169283,
2246.969,0.002131942,
2245.040,0.002101562,
2243.112,0.002063734,
2241.183,0.002019534,
2239.254,0.001986068,
2237.326,0.001970083,
2235.397,0.001974475,
2233.468,0.001994133,
2231.539,0.002004303,
2229.611,0.001997962,
2227.682,0.001988515,
2225.753,0.001972992,
2223.824,0.001955501,
2221.896,0.00196414,
2219.967,0.00199393,
2218.038,0.002012429,
2216.109,0.00202367,
2214.181,0.002047519,
2212.252,0.002086312,
2210.323,0.002130077,
2208.395,0.002162292,
2206.466,0.002188732,
2204.537,0.002225308,
2202.608,0.002275469,
2200.680,0.002347179,
2198.751,0.002437392,
2196.822,0.002525652,
2194.893,0.002602516,
2192.965,0.002681136,
2191.036,0.002777257,
2189.107,0.002884536,
2187.179,0.002997966,
2185.250,0.003133589,
2183.321,0.00330133,
2181.392,0.003490427,
2179.464,0.003683538,
2177.535,0.003878749,
2175.606,0.004092279,
2173.677,0.004341114,
2171.749,0.004639523,
2169.820,0.005001302,
2167.891,0.0054366,
2165.963,0.005947735,
2164.034,0.006540934,
2162.105,0.007236383,
2160.176,0.008063096,
2158.248,0.009064198,
2156.319,0.01029401,
2154.390,0.01180111,
2152.461,0.01363396,
2150.533,0.01586489,
2148.604,0.01859567,
2146.675,0.02191933,
2144.747,0.02584964,
2142.818,0.0302769,
2140.889,0.03496834,
2138.960,0.03954118,
2137.032,0.04350366,
2135.103,0.04643903,
2133.174,0.04811249,
2131.245,0.04844875,
2129.317,0.04749747,
2127.388,0.04539713,
2125.459,0.04236556,
2123.530,0.03870945,
2121.602,0.03478226,
2119.673,0.03088822,
2117.744,0.0272207,
2115.816,0.02387667,
2113.887,0.02088772,
2111.958,0.01824169,
2110.029,0.01590539,
2108.101,0.01384117,
2106.172,0.01202671,
2104.243,0.0104618,
2102.314,0.00913669,
2100.386,0.008027893,
2098.457,0.007112282,
2096.528,0.00634812,
2094.600,0.005695126,
2092.671,0.005141007,
2090.742,0.004675201,
2088.813,0.004269895,
2086.885,0.003910197,
2084.956,0.003614296,
2083.027,0.003377692,
2081.098,0.003162625,
2079.170,0.002955769,
2077.241,0.00276062,
2075.312,0.002580516,
2073.384,0.002432042,
2071.455,0.002319647,
2069.526,0.002216466,
2067.597,0.002115825,
2065.669,0.002042039,
2063.740,0.001992602,
2061.811,0.001944884,
2059.882,0.001889945,
2057.954,0.001818854,
2056.025,0.00173269,
2054.096,0.001665211,
2052.168,0.001634651,
2050.239,0.001610298,
2048.310,0.00157334,
2046.381,0.001532308,
2044.453,0.001494791,
2042.524,0.001468941,
2040.595,0.00145291,
2038.666,0.001438756,
2036.738,0.001430832,
2034.809,0.001427315,
2032.880,0.00140948,
2030.952,0.00137964,
2029.023,0.001364712,
2027.094,0.001369145,
2025.165,0.001372845,
2023.237,0.001372602,
2021.308,0.001379471,
2019.379,0.001388166,
2017.450,0.001390064,
2015.522,0.001397657,
2013.593,0.001416325,
2011.664,0.001431671,
2009.735,0.001438458,
2007.807,0.00144816,
2005.878,0.001466711,
2003.949,0.001493995,
2002.021,0.001526403,
2000.092,0.00156179,
1998.163,0.001610285,
1996.234,0.00167376,
1994.306,0.001733361,
1992.377,0.001783435,
1990.448,0.001844097,
1988.519,0.001923083,
1986.591,0.002006431,
1984.662,0.002091537,
1982.733,0.002190218,
1980.805,0.002307809,
1978.876,0.002443032,
1976.947,0.002586856,
1975.018,0.002726153,
1973.090,0.002872848,
1971.161,0.003057223,
1969.232,0.003286404,
1967.303,0.00354704,
1965.375,0.00384546,
1963.446,0.004201672,
1961.517,0.004622485,
1959.589,0.005127807,
1957.660,0.005745749,
1955.731,0.006486791,
1953.802,0.007369079,
1951.874,0.008431781,
1949.945,0.009733351,
1948.016,0.0113402,
1946.087,0.01329417,
1944.159,0.01565333,
1942.230,0.01857121,
1940.301,0.02216039,
1938.373,0.02629679,
1936.444,0.03062066,
1934.515,0.03455907,
1932.586,0.03743543,
1930.658,0.03871273,
1928.729,0.03819107,
1926.800,0.0360828,
1924.871,0.0328923,
1922.943,0.02920554,
1921.014,0.02548092,
1919.085,0.02195152,
1917.157,0.01880197,
1915.228,0.0161252,
1913.299,0.01380625,
1911.370,0.01176743,
1909.442,0.0100232,
1907.513,0.008560792,
1905.584,0.00735149,
1903.655,0.006355718,
1901.727,0.005516055,
1899.798,0.004793139,
1897.869,0.004193441,
1895.940,0.003725577,
1894.012,0.003353886,
1892.083,0.003024309,
1890.154,0.002717465,
1888.226,0.002450034,
1886.297,0.002245752,
1884.368,0.00210744,
1882.439,0.001991432,
1880.511,0.001865158,
1878.582,0.001745429,
1876.653,0.001643428,
1874.724,0.001553002,
1872.796,0.001466728,
1870.867,0.001378459,
1868.938,0.001301734,
1867.010,0.001261265,
1865.081,0.001247521,
1863.152,0.001225435,
1861.223,0.001181248,
1859.295,0.00113408,
1857.366,0.001109341,
1855.437,0.001103799,
1853.508,0.001102168,
1851.580,0.001095979,
1849.651,0.00106535,
1847.722,0.001005203,
1845.794,0.0009490922,
1843.865,0.0009229438,
1841.936,0.0009228592,
1840.007,0.0009339137,
1838.079,0.0009383626,
1836.150,0.0009332537,
1834.221,0.0009302927,
1832.292,0.000924513,
1830.364,0.0009133522,
1828.435,0.0009146979,
1826.506,0.0009310464,
1824.578,0.0009554031,
1822.649,0.000992607,
1820.720,0.001037513,
1818.791,0.001072307,
1816.863,0.001100162,
1814.934,0.001131532,
1813.005,0.001155256,
1811.076,0.001164903,
1809.148,0.001178599,
1807.219,0.001202596,
1805.290,0.001233619,
1803.362,0.001285284,
1801.433,0.001368879,
1799.504,0.001479909,
1797.575,0.001611394,
1795.647,0.001762843,
1793.718,0.001953569,
1791.789,0.002225599,
1789.860,0.002597269,
1787.932,0.00306527,
1786.003,0.003685331,
1784.074,0.004540356,
1782.145,0.005685654,
1780.217,0.00714438,
1778.288,0.008737314,
1776.359,0.009937065,
1774.431,0.01015201,
1772.502,0.009261748,
1770.573,0.007804253,
1768.644,0.006466073,
1766.716,0.005585616,
1764.787,0.005057458,
1762.858,0.004538107,
1760.929,0.003880748,
1759.001,0.003164175,
1757.072,0.002480462,
1755.143,0.001911228,
1753.215,0.001491755,
1751.286,0.001204352,
1749.357,0.00102009,
1747.428,0.0008880666,
1745.500,0.0007601256,
1743.571,0.0006372835,
1741.642,0.0005464419,
1739.713,0.000499216,
1737.785,0.0004793863,
1735.856,0.0004576407,
1733.927,0.0004320857,
1731.999,0.0003857492,
1730.070,0.0002866122,
1728.141,0.0001640536,
1726.212,7.207949E-5,
1724.284,3.898776E-5,
1722.355,3.510672E-5,
1720.426,1.875809E-5,
1718.497,1.827345E-5,
1716.569,4.245931E-5,
1714.640,6.265565E-5,
1712.711,6.45675E-5,
1710.783,5.815191E-5,
1708.854,3.75017E-5,
1706.925,4.597431E-5,
1704.996,7.02936E-5,
1703.068,6.493913E-5,
1701.139,5.550076E-5,
1699.210,0.0001374722,
1697.281,0.0002996456,
1695.353,0.0005219011,
1693.424,0.0006987625,
1691.495,0.0007486261,
1689.567,0.0007017801,
1687.638,0.0006226657,
1685.709,0.0005594781,
1683.780,0.0005600509,
1681.852,0.0006168624,
1679.923,0.0006677534,
1677.994,0.0006818331,
1676.065,0.0006937651,
1674.137,0.0007541209,
1672.208,0.0008521843,
1670.279,0.0009633343,
1668.350,0.001121918,
1666.422,0.00136266,
1664.493,0.001695774,
1662.564,0.002177109,
1660.636,0.002871517,
1658.707,0.003794901,
1656.778,0.004840677,
1654.849,0.005974232,
1652.921,0.007438946,
1650.992,0.008927611,
1649.063,0.009655083,
1647.134,0.009545897,
1645.206,0.009010205,
1643.277,0.00825491,
1641.348,0.007287268,
1639.420,0.006213605,
1637.491,0.005175211,
1635.562,0.004333834,
1633.633,0.0038166,
1631.705,0.003495687,
1629.776,0.003183396,
1627.847,0.002846991,
1625.918,0.002508616,
1623.990,0.002181437,
1622.061,0.001904262,
1620.132,0.001694081,
1618.204,0.00151178,
1616.275,0.001350599,
1614.346,0.001239408,
1612.417,0.001162387,
1610.489,0.001090373,
1608.560,0.001013442,
1606.631,0.0009395079,
1604.702,0.0008722466,
1602.774,0.0008111369,
1600.845,0.0007730705,
1598.916,0.0007553572,
1596.988,0.0007350518,
1595.059,0.000713914,
1593.130,0.0006948028,
1591.201,0.0006629709,
1589.273,0.0006292942,
1587.344,0.0006176421,
1585.415,0.0006142064,
1583.486,0.0006047476,
1581.558,0.0005995266,
1579.629,0.0005920233,
1577.700,0.0005715051,
1575.771,0.0005553279,
1573.843,0.0005490721,
1571.914,0.0005314989,
1569.985,0.0005090563,
1568.057,0.0005103479,
1566.128,0.0005362874,
1564.199,0.0005540049,
1562.270,0.0005399608,
1560.342,0.0005095718,
1558.413,0.0005056006,
1556.484,0.0005429086,
1554.555,0.0005805424,
1552.627,0.0006006384,
1550.698,0.000626346,
1548.769,0.0006590521,
1546.841,0.0006803919,
1544.912,0.0006935272,
1542.983,0.0007102636,
1541.054,0.00073219,
1539.126,0.0007615666,
1537.197,0.0007973629,
1535.268,0.0008315697,
1533.339,0.0008779722,
1531.411,0.0009521512,
1529.482,0.001022843,
1527.553,0.001074001,
1525.625,0.001141825,
1523.696,0.001231139,
1521.767,0.001331915,
1519.838,0.001478502,
1517.910,0.001695253,
1515.981,0.001961991,
1514.052,0.002244455,
1512.123,0.002540397,
1510.195,0.002856161,
1508.266,0.003234593,
1506.337,0.003842363,
1504.409,0.004726309,
1502.480,0.005716783,
1500.551,0.006748494,
1498.622,0.007870106,
1496.694,0.009152323,
1494.765,0.01046264,
1492.836,0.01135086,
1490.907,0.01150245,
1488.979,0.01094995,
1487.050,0.009866685,
1485.121,0.008454457,
1483.193,0.006927135,
1481.264,0.005484596,
1479.335,0.004270705,
1477.406,0.00330094,
1475.478,0.002528758,
1473.549,0.00193062,
1471.620,0.001509232,
1469.691,0.001236485,
1467.763,0.001029144,
1465.834,0.0008477051,
1463.905,0.0007226756,
1461.976,0.0006581051,
1460.048,0.0006095362,
1458.119,0.0005345367,
1456.190,0.0004229181,
1454.262,0.0003008002,
1452.333,0.0002043553,
1450.404,0.0001604228,
1448.475,0.0002160419,
1446.547,0.0004072951,
1444.618,0.0006691813,
1442.689,0.0008549662,
1440.760,0.0008765148,
1438.832,0.0007700086,
1436.903,0.0006191011,
1434.974,0.0004935238,
1433.046,0.000422776,
1431.117,0.0004017164,
1429.188,0.0003997969,
1427.259,0.0003839232,
1425.331,0.000354381,
1423.402,0.0003331453,
1421.473,0.0003473419,
1419.544,0.0004291543,
1417.616,0.0005662162,
1415.687,0.000689089,
1413.758,0.0007533935,
1411.830,0.0007572207,
1409.901,0.0007245702,
1407.972,0.0006877058,
1406.043,0.0006452217,
1404.115,0.0005914907,
1402.186,0.0005445384,
1400.257,0.000498537,
1398.328,0.0004402836,
1396.400,0.0003941108,
1394.471,0.000381293,
1392.542,0.0003833547,
1390.614,0.0003807107,
1388.685,0.0003727705,
1386.756,0.0003617922,
1384.827,0.000349246,
1382.899,0.0003405468,
1380.970,0.00033342,
1379.041,0.0003281089,
1377.112,0.0003291003,
1375.184,0.0003327784,
1373.255,0.0003392099,
1371.326,0.0003470342,
1369.398,0.0003433694,
1367.469,0.0003287001,
1365.540,0.0003136501,
1363.611,0.000306808,
1361.683,0.0003176353,
1359.754,0.0003370024,
1357.825,0.0003624925,
1355.896,0.000387948,
1353.968,0.0004085553,
1352.039,0.0004185917,
1350.110,0.0003876649,
1348.181,0.0003054338,
1346.253,0.0002266054,
1344.324,0.0002037637,
1342.395,0.0002220514,
1340.467,0.0002404562,
1338.538,0.0002494498,
1336.609,0.0002633194,
1334.680,0.0002855326,
1332.752,0.0003031425,
1330.823,0.0003236665,
1328.894,0.0003669971,
1326.965,0.0004381303,
1325.037,0.0005102726,
1323.108,0.0005445802,
1321.179,0.000530672,
1319.251,0.0004596909,
1317.322,0.0003430919,
1315.393,0.0002388026,
1313.464,0.000173656,
1311.536,0.0001390799,
1309.607,0.0001323008,
1307.678,0.0001627363,
1305.749,0.0002158689,
1303.821,0.0002680986,
1301.892,0.0003210453,
1299.963,0.0003847888,
1298.035,0.0004521776,
1296.106,0.0005080792,
1294.177,0.0005525203,
1292.248,0.0006153069,
1290.320,0.0007278608,
1288.391,0.0008881323,
1286.462,0.001078788,
1284.533,0.001301042,
1282.605,0.001588305,
1280.676,0.001984674,
1278.747,0.002504495,
1276.819,0.003138117,
1274.890,0.003826425,
1272.961,0.004355291,
1271.032,0.004416121,
1269.104,0.003926594,
1267.175,0.003217095,
1265.246,0.002761604,
1263.317,0.002742616,
1261.389,0.002938174,
1259.460,0.002999688,
1257.531,0.002778765,
1255.603,0.002364535,
1253.674,0.001904376,
1251.745,0.001494134,
1249.816,0.001171627,
1247.888,0.0009354773,
1245.959,0.0007660252,
1244.030,0.0006314495,
1242.101,0.0005157785,
1240.173,0.0004326311,
1238.244,0.0003759221,
1236.315,0.0003184288,
1234.386,0.0002569069,
1232.458,0.0001975841,
1230.529,0.0001500661,
1228.600,0.0001117543,
1226.672,7.183168E-5,
1224.743,4.199873E-5,
1222.814,2.420126E-5,
1220.885,4.996636E-5,
1218.957,0.0001078648,
1217.028,0.0002251988,
1215.099,0.0003987178,
1213.170,0.0005631577,
1211.242,0.0006500161,
1209.313,0.0006393819,
1207.384,0.0005860614,
1205.456,0.0005351311,
1203.527,0.0004670988,
1201.598,0.0003936564,
1199.669,0.0003549467,
1197.741,0.0003383853,
1195.812,0.0002994602,
1193.883,0.0002477591,
1191.954,0.0002305194,
1190.026,0.0002407888,
1188.097,0.0002421881,
1186.168,0.0002379252,
1184.240,0.0002293887,
1182.311,0.000209095,
1180.382,0.0001797284,
1178.453,0.000155963,
1176.525,0.0001455911,
1174.596,0.0001348587,
1172.667,0.0001254699,
1170.738,0.0001253661,
1168.810,0.0001166863,
1166.881,0.0001104597,
1164.952,0.000125187,
1163.024,0.000153133,
1161.095,0.000156146,
1159.166,0.0001241344,
1157.237,8.683339E-5,
1155.309,9.334576E-5,
1153.380,9.278557E-5,
1151.451,8.082532E-5,
1149.522,8.747937E-5,
1147.594,0.0001193842,
1145.665,0.0001521969,
1143.736,0.0001631427,
1141.807,0.0001465673,
1139.879,0.0001269274,
1137.950,0.0001029258,
1136.021,8.095748E-5,
1134.093,9.779118E-5,
1132.164,0.0001251025,
1130.235,0.0001651647,
1128.306,0.0001839356,
1126.378,0.0001769172,
1124.449,0.0001330032,
1122.520,9.158725E-5,
1120.591,5.537071E-5,
1118.663,5.71263E-5,
1116.734,5.489374E-5,
1114.805,8.594761E-5,
1112.877,7.484714E-5,
1110.948,8.72999E-5,
1109.019,0.0001161831,
1107.090,0.000131275,
1105.162,0.0001293561,
1103.233,0.0001160689,
1101.304,0.0001052661,
1099.375,0.0001186027,
1097.447,0.0001378379,
1095.518,0.0001204191,
1093.589,0.0001144291,
1091.661,0.0001395686,
1089.732,0.0001749227,
1087.803,0.0002129226,
1085.874,0.0002202565,
1083.946,0.0001870455,
1082.017,0.000191514,
1080.088,0.0002581728,
1078.159,0.0003227289,
1076.231,0.0003464507,
1074.302,0.0003413344,
1072.373,0.0003494144,
1070.445,0.0003871604,
1068.516,0.0004212955,
1066.587,0.0004341722,
1064.658,0.0004286147,
1062.730,0.0004426257,
1060.801,0.0004831275,
1058.872,0.0004750472,
1056.943,0.0003679135,
1055.015,0.0002386563,
1053.086,0.0001986849,
1051.157,0.0002368824,
1049.229,0.0002903286,
1047.300,0.0003524703,
1045.371,0.0004792269,
1043.442,0.0006525543,
1041.514,0.0007745495,
1039.585,0.0007752115,
1037.656,0.000693141,
1035.727,0.0006020769,
1033.799,0.0005363064,
1031.870,0.0004900726,
1029.941,0.0004471478,
1028.012,0.0003859714,
1026.084,0.0003108194,
1024.155,0.0002416767,
1022.226,0.0001813568,
1020.298,0.0001159609,
1018.369,7.371933E-5,
1016.440,6.860305E-5,
1014.511,9.667664E-5,
1012.583,0.0001341621,
1010.654,0.0001867191,
1008.725,0.0002298207,
1006.796,0.0002086106,
1004.868,0.0001253327,
1002.939,5.638144E-5,
1001.010,3.469403E-5,
999.082,3.7635E-5,
997.153,6.514043E-5,
995.224,9.06358E-5,
993.295,9.050383E-5,
991.367,5.737188E-5,
989.438,5.051444E-5,
987.509,6.06637E-5,
985.580,5.231147E-5,
983.652,5.366632E-5,
981.723,6.822638E-5,
979.794,6.728223E-5,
977.866,4.617023E-5,
975.937,5.040947E-5,
974.008,4.802309E-5,
972.079,4.564354E-5,
970.151,7.631891E-5,
968.222,6.53232E-5,
966.293,3.261304E-5,
964.364,5.375469E-5,
962.436,7.574077E-5,
960.507,7.391441E-5,
958.578,5.440704E-5,
956.650,6.213722E-5,
954.721,4.304927E-5,
952.792,4.902071E-5,
950.863,7.037174E-5,
948.935,6.887553E-5,
947.006,7.275327E-5,
945.077,7.85483E-5,
943.148,8.11342E-5,
941.220,9.918016E-5,
939.291,0.0001052605,
937.362,7.732102E-5,
935.434,8.278882E-5,
933.505,7.852374E-5,
931.576,5.290563E-5,
929.647,2.594464E-5,
927.719,5.093399E-5,
925.790,5.973883E-5,
923.861,4.573039E-5,
921.932,3.325257E-5,
920.004,4.523906E-5,
918.075,5.481749E-5,
916.146,5.308971E-5,
914.217,3.556319E-5,
912.289,3.96407E-5,
910.360,3.407496E-5,
908.431,3.64262E-5,
906.503,4.152344E-5,
904.574,6.262063E-5,
902.645,5.540415E-5,
900.716,7.074026E-5,
898.788,6.519783E-5,
896.859,7.212777E-5,
894.930,0.0001073586,
893.001,0.000102233,
891.073,9.142746E-5,
889.144,6.83012E-5,
887.215,6.852161E-5,
885.287,9.198971E-5,
883.358,0.0001301881,
881.429,0.0001328596,
879.500,6.973318E-5,
877.572,3.657172E-5,
875.643,3.097065E-5,
873.714,2.82164E-5,
871.785,4.643205E-5,
869.857,5.258199E-5,
867.928,7.719439E-5,
865.999,8.343891E-5,
864.071,7.921721E-5,
862.142,3.793337E-5,
860.213,6.840254E-5,
858.284,0.0001162857,
856.356,0.0001085246,
854.427,6.325482E-5,
852.498,9.873212E-5,
850.569,9.841828E-5,
848.641,8.088452E-5,
846.712,4.403014E-5,
844.783,7.371711E-5,
842.855,8.72474E-5,
840.926,0.0001042216,
838.997,0.0001277719,
837.068,8.514683E-5,
835.140,4.080852E-5,
833.211,0.0001167966,
831.282,0.0001029342,
829.353,6.398491E-5,
827.425,6.264987E-5,
825.496,7.113833E-5,
823.567,6.058777E-5,
821.639,0.0001303591,
819.710,0.0001578175,
817.781,0.0001690248,
815.852,0.0001730629,
813.924,0.0001653014,
811.995,0.0001236334,
810.066,4.405501E-5,
808.137,4.466872E-5,
806.209,8.296856E-5,
804.280,0.0001054862,
802.351,0.0001223316,
800.422,0.0001287447,
798.494,0.0001361833,
796.565,0.0001287313,
794.636,9.633486E-5,
792.708,8.657649E-5,
790.779,0.0001223872,
788.850,0.0001550887,
786.921,0.0001222898,
784.993,0.0001523861,
783.064,0.000188217,
781.135,0.000155938,
779.206,0.0001574604,
777.278,0.0001352853,
775.349,6.600315E-5,
773.420,8.110084E-5,
771.492,0.000146935,
769.563,0.0001599515,
767.634,9.848872E-5,
765.705,0.0001037302,
763.777,0.0001230554,
761.848,0.000116325,
759.919,0.0001139747,
757.990,0.0001134549,
756.062,8.192331E-5,
754.133,2.893145E-5,
752.204,9.578378E-5,
750.276,0.0001347584,
748.347,0.0001415106,
746.418,9.576728E-5,
744.489,7.145541E-5,
742.561,6.923614E-5,
740.632,8.872067E-5,
738.703,0.0001154894,
736.774,9.995414E-5,
734.846,1.896993E-5,
732.917,0.0001331709,
730.988,0.0002252468,
729.060,0.000221562,
727.131,0.0001525355,
725.202,0.0001438064,
723.273,0.0002123429,
721.345,0.0002038582,
719.416,0.0001488951,
717.487,0.0001332164,
715.558,9.304535E-5,
713.630,9.889431E-5,
711.701,0.0001477334,
709.772,0.0001454444,
707.843,0.0001267493,
705.915,0.0001601802,
703.986,0.0002251653,
702.057,0.0001915312,
700.129,0.0001416497,
698.200,0.0001309987,
696.271,9.971517E-5,
694.342,8.974275E-5,
692.414,0.000113824,
690.485,0.0001125234,
688.556,0.0001261569,
686.627,0.0001920048,
684.699,0.0002317609,
682.770,0.000185342,
680.841,0.0001448204,
678.913,0.0001491098,
676.984,0.000130425,
675.055,0.0001180513,
673.126,0.0001335744,
671.198,0.0001083894,
669.269,0.0001012375,
667.340,0.0001470904,
665.411,0.0002263734,
663.483,0.0002566124,
661.554,0.0002264642,
659.625,0.0001560446,
657.697,9.625089E-5,
655.768,9.126391E-5,
653.839,8.607018E-5,
651.910,6.696655E-5,
649.982,0.0001117395,
648.053,0.0002243077,
646.124,0.0002711701,
644.195,0.0002159607,
642.267,0.0001335364,
640.338,0.0001001498,
638.409,9.39323E-5,
636.481,0.0001666364,
634.552,0.0002516563,
632.623,0.000265154,
630.694,0.0002631863,
628.766,0.0002365908,
626.837,0.0001687875,
624.908,0.0001867641,
622.979,0.0002424226,
621.051,0.0001914121,
619.122,0.000228904,
617.193,0.000286644,
615.265,0.000281967,
613.336,0.0002391837,
611.407,0.0002615861,
609.478,0.0003241786,
607.550,0.0003027449,
605.621,0.0002830129,
603.692,0.0003008635,
601.763,0.0002927747,
599.835,0.0002939126,
597.906,0.0002384362,
595.977,0.000239898,
594.048,0.000153001,
592.120,0.0001871472,
590.191,0.0003936809,
588.262,0.0004715198,
586.334,0.0003603194,
584.405,0.0001816565,
582.476,0.0001348719,
580.547,0.0001756059,
578.619,0.0002790874,
576.690,0.0003059599,
574.761,0.0003263808,
572.832,0.0003446096,
570.904,0.000272177,
568.975,0.0001597607,
567.046,0.0001288837,
565.118,0.0002047711,
563.189,0.0002393272,
561.260,0.0003013863,
559.331,0.0002277187,
557.403,0.0002388768,
555.474,0.0003219038,
553.545,0.0002848648,
551.616,0.0003198131,
549.688,0.0004246454,
547.759,0.000377972,
545.830,0.0001638201,
543.902,0.0002044069,
541.973,0.0002998553,
540.044,0.0001044738,
538.115,0.0002401104,
536.187,0.0003168369,
534.258,0.0002839458,
532.329,0.0002387053,
530.400,0.0002028385,
528.472,0.0004136854,
526.543,0.0005808804,
524.614,0.0006254919,
522.686,0.0004702474,
520.757,0.0002747282,
518.828,0.0003995515,
516.899,0.0003584844,
514.971,0.0003516361,
513.042,0.0004138775,
511.113,0.000472747,
509.184,0.0004906754,
507.256,0.0001894091,
505.327,0.0002873199,
503.398,0.0006622068,
501.470,0.0009205768,
499.541,0.0008855119,
497.612,0.0006275036,
495.683,0.0003507239,
493.755,0.0003689528,
491.826,0.0004179137,
489.897,0.0003446317,
487.968,0.00033433,
486.040,0.0004860554,
484.111,0.000365346,
482.182,0.0005676416,
480.253,0.0007531782,
478.325,0.0006392004,
476.396,0.0005173765,
474.467,0.000298692,
472.539,0.000334392,
470.610,0.0004436014,
468.681,0.0004374734,
466.752,0.0003830326,
464.824,0.0003212491,
462.895,0.0002371905,
460.966,0.0005473221,
459.037,0.000801317,
457.109,0.0007198522,
455.180,0.0005895123,
453.251,0.0007000659,
451.323,0.0006938681,
449.394,0.0002181845,
447.465,0.0005368729,
445.536,0.0007096494,
443.608,0.0007064472,
441.679,0.000737845,
439.750,0.001035313,
437.821,0.001275755,
435.893,0.001329428,
433.964,0.001028523,
432.035,0.001058657,
430.107,0.001648476,
428.178,0.001733348,
426.249,0.001243545,
424.320,0.001581832,
422.392,0.001825705,
420.463,0.001598836,
418.534,0.00100845,
416.605,0.001035609,
414.677,0.001664113,
412.748,0.002280539,
410.819,0.001982015,
408.891,0.001198821,
406.962,0.001082467,
405.033,0.002270777,
403.104,0.003506472,
401.176,0.004573192,
399.247,0.004803692,
397.318,0.003954066,
395.389,0.002976239,
393.461,0.003886022,
391.532,0.004444516,
389.603,0.003241524,
387.675,0.002413488,
385.746,0.002702445,
383.817,0.00454774,
381.888,0.004873418,
379.960,0.00398513,
378.031,0.004978435,
376.102,0.00643057,
374.173,0.004910152,
