,cavity_before,
Wavenumbers [1/cm],Transmittance %,
7000.000,8.97,
6999.000,9.07,
6998.000,9.18,
6997.000,9.3,
6996.000,9.42,
6995.000,9.55,
6994.000,9.69,
6993.000,9.83,
6992.000,9.98,
6991.000,10.13,
6990.000,10.29,
6989.000,10.45,
6988.000,10.61,
6987.000,10.77,
6986.000,10.93,
6985.000,11.09,
6984.000,11.25,
6983.000,11.42,
6982.000,11.59,
6981.000,11.77,
6980.000,11.95,
6979.000,12.14,
6978.000,12.33,
6977.000,12.52,
6976.000,12.71,
6975.000,12.91,
6974.000,13.11,
6973.000,13.31,
6972.000,13.52,
6971.000,13.72,
6970.000,13.93,
6969.000,14.13,
6968.000,14.34,
6967.000,14.55,
6966.000,14.76,
6965.000,14.95,
6964.000,15.15,
6963.000,15.36,
6962.000,15.56,
6961.000,15.77,
6960.000,15.97,
6959.000,16.18,
6958.000,16.39,
6957.000,16.59,
6956.000,16.79,
6955.000,16.99,
6954.000,17.17,
6953.000,17.33,
6952.000,17.49,
6951.000,17.64,
6950.000,17.79,
6949.000,17.94,
6948.000,18.08,
6947.000,18.21,
6946.000,18.33,
6945.000,18.44,
6944.000,18.55,
6943.000,18.66,
6942.000,18.75,
6941.000,18.83,
6940.000,18.9,
6939.000,18.97,
6938.000,19.02,
6937.000,19.05,
6936.000,19.07,
6935.000,19.09,
6934.000,19.11,
6933.000,19.12,
6932.000,19.12,
6931.000,19.1,
6930.000,19.08,
6929.000,19.04,
6928.000,18.98,
6927.000,18.91,
6926.000,18.82,
6925.000,18.72,
6924.000,18.61,
6923.000,18.5,
6922.000,18.38,
6921.000,18.25,
6920.000,18.12,
6919.000,17.98,
6918.000,17.83,
6917.000,17.68,
6916.000,17.51,
6915.000,17.33,
6914.000,17.15,
6913.000,16.96,
6912.000,16.77,
6911.000,16.58,
6910.000,16.38,
6909.000,16.18,
6908.000,15.99,
6907.000,15.79,
6906.000,15.58,
6905.000,15.38,
6904.000,15.16,
6903.000,14.95,
6902.000,14.74,
6901.000,14.52,
6900.000,14.3,
6899.000,14.08,
6898.000,13.86,
6897.000,13.65,
6896.000,13.44,
6895.000,13.23,
6894.000,13.01,
6893.000,12.8,
6892.000,12.59,
6891.000,12.38,
6890.000,12.19,
6889.000,11.99,
6888.000,11.81,
6887.000,11.63,
6886.000,11.45,
6885.000,11.28,
6884.000,11.11,
6883.000,10.93,
6882.000,10.75,
6881.000,10.57,
6880.000,10.4,
6879.000,10.23,
6878.000,10.06,
6877.000,9.9,
6876.000,9.74,
6875.000,9.59,
6874.000,9.45,
6873.000,9.3,
6872.000,9.16,
6871.000,9.03,
6870.000,8.9,
6869.000,8.77,
6868.000,8.64,
6867.000,8.52,
6866.000,8.4,
6865.000,8.28,
6864.000,8.17,
6863.000,8.07,
6862.000,7.97,
6861.000,7.88,
6860.000,7.78,
6859.000,7.69,
6858.000,7.59,
6857.000,7.5,
6856.000,7.41,
6855.000,7.32,
6854.000,7.24,
6853.000,7.16,
6852.000,7.08,
6851.000,7.01,
6850.000,6.94,
6849.000,6.87,
6848.000,6.8,
6847.000,6.74,
6846.000,6.68,
6845.000,6.63,
6844.000,6.58,
6843.000,6.53,
6842.000,6.47,
6841.000,6.42,
6840.000,6.38,
6839.000,6.35,
6838.000,6.32,
6837.000,6.29,
6836.000,6.25,
6835.000,6.22,
6834.000,6.19,
6833.000,6.16,
6832.000,6.14,
6831.000,6.11,
6830.000,6.09,
6829.000,6.06,
6828.000,6.04,
6827.000,6.02,
6826.000,6,
6825.000,5.98,
6824.000,5.97,
6823.000,5.96,
6822.000,5.96,
6821.000,5.96,
6820.000,5.96,
6819.000,5.97,
6818.000,5.96,
6817.000,5.96,
6816.000,5.97,
6815.000,5.98,
6814.000,5.99,
6813.000,6.01,
6812.000,6.02,
6811.000,6.04,
6810.000,6.06,
6809.000,6.08,
6808.000,6.11,
6807.000,6.13,
6806.000,6.17,
6805.000,6.2,
6804.000,6.23,
6803.000,6.26,
6802.000,6.29,
6801.000,6.33,
6800.000,6.36,
6799.000,6.41,
6798.000,6.45,
6797.000,6.5,
6796.000,6.55,
6795.000,6.6,
6794.000,6.65,
6793.000,6.71,
6792.000,6.77,
6791.000,6.83,
6790.000,6.89,
6789.000,6.96,
6788.000,7.03,
6787.000,7.1,
6786.000,7.18,
6785.000,7.27,
6784.000,7.36,
6783.000,7.45,
6782.000,7.55,
6781.000,7.64,
6780.000,7.73,
6779.000,7.83,
6778.000,7.93,
6777.000,8.04,
6776.000,8.15,
6775.000,8.26,
6774.000,8.38,
6773.000,8.5,
6772.000,8.62,
6771.000,8.74,
6770.000,8.87,
6769.000,9,
6768.000,9.15,
6767.000,9.3,
6766.000,9.46,
6765.000,9.62,
6764.000,9.77,
6763.000,9.93,
6762.000,10.09,
6761.000,10.25,
6760.000,10.42,
6759.000,10.6,
6758.000,10.78,
6757.000,10.96,
6756.000,11.14,
6755.000,11.33,
6754.000,11.52,
6753.000,11.71,
6752.000,11.9,
6751.000,12.1,
6750.000,12.31,
6749.000,12.51,
6748.000,12.72,
6747.000,12.92,
6746.000,13.13,
6745.000,13.34,
6744.000,13.56,
6743.000,13.77,
6742.000,13.97,
6741.000,14.18,
6740.000,14.38,
6739.000,14.59,
6738.000,14.79,
6737.000,14.99,
6736.000,15.19,
6735.000,15.38,
6734.000,15.58,
6733.000,15.76,
6732.000,15.93,
6731.000,16.09,
6730.000,16.25,
6729.000,16.4,
6728.000,16.55,
6727.000,16.68,
6726.000,16.81,
6725.000,16.93,
6724.000,17.04,
6723.000,17.14,
6722.000,17.24,
6721.000,17.32,
6720.000,17.39,
6719.000,17.45,
6718.000,17.5,
6717.000,17.53,
6716.000,17.55,
6715.000,17.56,
6714.000,17.55,
6713.000,17.53,
6712.000,17.5,
6711.000,17.46,
6710.000,17.41,
6709.000,17.35,
6708.000,17.29,
6707.000,17.21,
6706.000,17.12,
6705.000,17.02,
6704.000,16.9,
6703.000,16.78,
6702.000,16.64,
6701.000,16.5,
6700.000,16.36,
6699.000,16.22,
6698.000,16.07,
6697.000,15.91,
6696.000,15.74,
6695.000,15.56,
6694.000,15.36,
6693.000,15.17,
6692.000,14.97,
6691.000,14.78,
6690.000,14.59,
6689.000,14.39,
6688.000,14.2,
6687.000,14,
6686.000,13.81,
6685.000,13.61,
6684.000,13.41,
6683.000,13.2,
6682.000,12.99,
6681.000,12.79,
6680.000,12.58,
6679.000,12.38,
6678.000,12.19,
6677.000,11.99,
6676.000,11.8,
6675.000,11.62,
6674.000,11.43,
6673.000,11.25,
6672.000,11.06,
6671.000,10.88,
6670.000,10.71,
6669.000,10.54,
6668.000,10.37,
6667.000,10.2,
6666.000,10.04,
6665.000,9.88,
6664.000,9.72,
6663.000,9.57,
6662.000,9.42,
6661.000,9.28,
6660.000,9.13,
6659.000,9,
6658.000,8.86,
6657.000,8.72,
6656.000,8.59,
6655.000,8.46,
6654.000,8.34,
6653.000,8.22,
6652.000,8.1,
6651.000,8,
6650.000,7.89,
6649.000,7.79,
6648.000,7.69,
6647.000,7.6,
6646.000,7.5,
6645.000,7.41,
6644.000,7.32,
6643.000,7.24,
6642.000,7.16,
6641.000,7.08,
6640.000,7.01,
6639.000,6.93,
6638.000,6.86,
6637.000,6.78,
6636.000,6.71,
6635.000,6.64,
6634.000,6.58,
6633.000,6.52,
6632.000,6.47,
6631.000,6.41,
6630.000,6.36,
6629.000,6.32,
6628.000,6.28,
6627.000,6.24,
6626.000,6.2,
6625.000,6.16,
6624.000,6.12,
6623.000,6.09,
6622.000,6.06,
6621.000,6.03,
6620.000,6,
6619.000,5.98,
6618.000,5.95,
6617.000,5.94,
6616.000,5.92,
6615.000,5.91,
6614.000,5.9,
6613.000,5.89,
6612.000,5.89,
6611.000,5.88,
6610.000,5.87,
6609.000,5.87,
6608.000,5.87,
6607.000,5.87,
6606.000,5.88,
6605.000,5.89,
6604.000,5.9,
6603.000,5.91,
6602.000,5.92,
6601.000,5.93,
6600.000,5.94,
6599.000,5.96,
6598.000,5.97,
6597.000,5.99,
6596.000,6.02,
6595.000,6.05,
6594.000,6.08,
6593.000,6.11,
6592.000,6.14,
6591.000,6.17,
6590.000,6.2,
6589.000,6.24,
6588.000,6.29,
6587.000,6.34,
6586.000,6.39,
6585.000,6.45,
6584.000,6.51,
6583.000,6.57,
6582.000,6.63,
6581.000,6.69,
6580.000,6.75,
6579.000,6.81,
6578.000,6.88,
6577.000,6.95,
6576.000,7.02,
6575.000,7.09,
6574.000,7.17,
6573.000,7.25,
6572.000,7.34,
6571.000,7.43,
6570.000,7.52,
6569.000,7.62,
6568.000,7.71,
6567.000,7.82,
6566.000,7.92,
6565.000,8.03,
6564.000,8.15,
6563.000,8.28,
6562.000,8.41,
6561.000,8.54,
6560.000,8.66,
6559.000,8.79,
6558.000,8.93,
6557.000,9.07,
6556.000,9.21,
6555.000,9.36,
6554.000,9.51,
6553.000,9.67,
6552.000,9.83,
6551.000,9.99,
6550.000,10.16,
6549.000,10.33,
6548.000,10.51,
6547.000,10.69,
6546.000,10.88,
6545.000,11.07,
6544.000,11.26,
6543.000,11.45,
6542.000,11.64,
6541.000,11.84,
6540.000,12.03,
6539.000,12.22,
6538.000,12.42,
6537.000,12.62,
6536.000,12.82,
6535.000,13.02,
6534.000,13.23,
6533.000,13.44,
6532.000,13.65,
6531.000,13.87,
6530.000,14.08,
6529.000,14.29,
6528.000,14.5,
6527.000,14.7,
6526.000,14.91,
6525.000,15.12,
6524.000,15.32,
6523.000,15.52,
6522.000,15.72,
6521.000,15.92,
6520.000,16.11,
6519.000,16.3,
6518.000,16.48,
6517.000,16.66,
6516.000,16.83,
6515.000,17,
6514.000,17.17,
6513.000,17.34,
6512.000,17.49,
6511.000,17.63,
6510.000,17.76,
6509.000,17.88,
6508.000,17.99,
6507.000,18.1,
6506.000,18.2,
6505.000,18.28,
6504.000,18.35,
6503.000,18.41,
6502.000,18.47,
6501.000,18.5,
6500.000,18.53,
6499.000,18.54,
6498.000,18.53,
6497.000,18.52,
6496.000,18.5,
6495.000,18.46,
6494.000,18.4,
6493.000,18.34,
6492.000,18.26,
6491.000,18.17,
6490.000,18.07,
6489.000,17.95,
6488.000,17.83,
6487.000,17.7,
6486.000,17.56,
6485.000,17.41,
6484.000,17.26,
6483.000,17.11,
6482.000,16.94,
6481.000,16.77,
6480.000,16.58,
6479.000,16.39,
6478.000,16.19,
6477.000,15.98,
6476.000,15.76,
6475.000,15.55,
6474.000,15.33,
6473.000,15.12,
6472.000,14.9,
6471.000,14.69,
6470.000,14.48,
6469.000,14.26,
6468.000,14.04,
6467.000,13.81,
6466.000,13.59,
6465.000,13.36,
6464.000,13.14,
6463.000,12.92,
6462.000,12.71,
6461.000,12.49,
6460.000,12.28,
6459.000,12.07,
6458.000,11.87,
6457.000,11.66,
6456.000,11.46,
6455.000,11.26,
6454.000,11.06,
6453.000,10.87,
6452.000,10.69,
6451.000,10.51,
6450.000,10.33,
6449.000,10.15,
6448.000,9.97,
6447.000,9.81,
6446.000,9.64,
6445.000,9.48,
6444.000,9.32,
6443.000,9.17,
6442.000,9.02,
6441.000,8.88,
6440.000,8.73,
6439.000,8.59,
6438.000,8.45,
6437.000,8.32,
6436.000,8.2,
6435.000,8.09,
6434.000,7.97,
6433.000,7.86,
6432.000,7.75,
6431.000,7.65,
6430.000,7.54,
6429.000,7.44,
6428.000,7.33,
6427.000,7.23,
6426.000,7.13,
6425.000,7.04,
6424.000,6.95,
6423.000,6.86,
6422.000,6.79,
6421.000,6.72,
6420.000,6.64,
6419.000,6.57,
6418.000,6.5,
6417.000,6.43,
6416.000,6.36,
6415.000,6.3,
6414.000,6.24,
6413.000,6.19,
6412.000,6.14,
6411.000,6.1,
6410.000,6.06,
6409.000,6.02,
6408.000,5.97,
6407.000,5.93,
6406.000,5.89,
6405.000,5.85,
6404.000,5.81,
6403.000,5.78,
6402.000,5.75,
6401.000,5.72,
6400.000,5.7,
6399.000,5.67,
6398.000,5.65,
6397.000,5.63,
6396.000,5.61,
6395.000,5.6,
6394.000,5.59,
6393.000,5.58,
6392.000,5.57,
6391.000,5.56,
6390.000,5.55,
6389.000,5.55,
6388.000,5.54,
6387.000,5.54,
6386.000,5.54,
6385.000,5.55,
6384.000,5.55,
6383.000,5.57,
6382.000,5.58,
6381.000,5.59,
6380.000,5.6,
6379.000,5.61,
6378.000,5.62,
6377.000,5.64,
6376.000,5.66,
6375.000,5.68,
6374.000,5.7,
6373.000,5.73,
6372.000,5.76,
6371.000,5.79,
6370.000,5.82,
6369.000,5.85,
6368.000,5.88,
6367.000,5.92,
6366.000,5.96,
6365.000,6,
6364.000,6.05,
6363.000,6.1,
6362.000,6.15,
6361.000,6.21,
6360.000,6.27,
6359.000,6.33,
6358.000,6.39,
6357.000,6.46,
6356.000,6.53,
6355.000,6.6,
6354.000,6.67,
6353.000,6.75,
6352.000,6.82,
6351.000,6.9,
6350.000,6.99,
6349.000,7.07,
6348.000,7.17,
6347.000,7.26,
6346.000,7.36,
6345.000,7.47,
6344.000,7.58,
6343.000,7.69,
6342.000,7.81,
6341.000,7.93,
6340.000,8.06,
6339.000,8.19,
6338.000,8.32,
6337.000,8.46,
6336.000,8.61,
6335.000,8.75,
6334.000,8.91,
6333.000,9.06,
6332.000,9.22,
6331.000,9.38,
6330.000,9.54,
6329.000,9.71,
6328.000,9.89,
6327.000,10.07,
6326.000,10.26,
6325.000,10.46,
6324.000,10.65,
6323.000,10.85,
6322.000,11.06,
6321.000,11.28,
6320.000,11.49,
6319.000,11.71,
6318.000,11.93,
6317.000,12.16,
6316.000,12.39,
6315.000,12.62,
6314.000,12.86,
6313.000,13.09,
6312.000,13.33,
6311.000,13.57,
6310.000,13.81,
6309.000,14.05,
6308.000,14.3,
6307.000,14.54,
6306.000,14.78,
6305.000,15.03,
6304.000,15.27,
6303.000,15.5,
6302.000,15.74,
6301.000,15.96,
6300.000,16.18,
6299.000,16.4,
6298.000,16.62,
6297.000,16.82,
6296.000,17.01,
6295.000,17.19,
6294.000,17.36,
6293.000,17.53,
6292.000,17.69,
6291.000,17.84,
6290.000,17.98,
6289.000,18.11,
6288.000,18.22,
6287.000,18.32,
6286.000,18.41,
6285.000,18.48,
6284.000,18.54,
6283.000,18.58,
6282.000,18.61,
6281.000,18.62,
6280.000,18.62,
6279.000,18.61,
6278.000,18.58,
6277.000,18.54,
6276.000,18.48,
6275.000,18.41,
6274.000,18.32,
6273.000,18.21,
6272.000,18.1,
6271.000,17.97,
6270.000,17.84,
6269.000,17.7,
6268.000,17.54,
6267.000,17.38,
6266.000,17.21,
6265.000,17.02,
6264.000,16.83,
6263.000,16.64,
6262.000,16.44,
6261.000,16.23,
6260.000,16.02,
6259.000,15.81,
6258.000,15.6,
6257.000,15.38,
6256.000,15.15,
6255.000,14.93,
6254.000,14.71,
6253.000,14.48,
6252.000,14.25,
6251.000,14.02,
6250.000,13.79,
6249.000,13.56,
6248.000,13.34,
6247.000,13.11,
6246.000,12.9,
6245.000,12.68,
6244.000,12.46,
6243.000,12.25,
6242.000,12.04,
6241.000,11.83,
6240.000,11.62,
6239.000,11.41,
6238.000,11.21,
6237.000,11,
6236.000,10.81,
6235.000,10.62,
6234.000,10.43,
6233.000,10.26,
6232.000,10.08,
6231.000,9.91,
6230.000,9.75,
6229.000,9.6,
6228.000,9.44,
6227.000,9.29,
6226.000,9.14,
6225.000,8.99,
6224.000,8.84,
6223.000,8.7,
6222.000,8.55,
6221.000,8.42,
6220.000,8.29,
6219.000,8.17,
6218.000,8.06,
6217.000,7.95,
6216.000,7.84,
6215.000,7.74,
6214.000,7.64,
6213.000,7.53,
6212.000,7.43,
6211.000,7.32,
6210.000,7.23,
6209.000,7.14,
6208.000,7.06,
6207.000,6.98,
6206.000,6.91,
6205.000,6.85,
6204.000,6.78,
6203.000,6.72,
6202.000,6.66,
6201.000,6.6,
6200.000,6.54,
6199.000,6.49,
6198.000,6.44,
6197.000,6.4,
6196.000,6.35,
6195.000,6.31,
6194.000,6.27,
6193.000,6.23,
6192.000,6.19,
6191.000,6.16,
6190.000,6.13,
6189.000,6.1,
6188.000,6.08,
6187.000,6.06,
6186.000,6.04,
6185.000,6.02,
6184.000,6,
6183.000,5.99,
6182.000,5.98,
6181.000,5.97,
6180.000,5.97,
6179.000,5.97,
6178.000,5.98,
6177.000,5.98,
6176.000,5.98,
6175.000,5.98,
6174.000,5.98,
6173.000,5.99,
6172.000,6.01,
6171.000,6.03,
6170.000,6.04,
6169.000,6.06,
6168.000,6.08,
6167.000,6.1,
6166.000,6.13,
6165.000,6.16,
6164.000,6.19,
6163.000,6.23,
6162.000,6.27,
6161.000,6.31,
6160.000,6.35,
6159.000,6.39,
6158.000,6.43,
6157.000,6.49,
6156.000,6.54,
6155.000,6.59,
6154.000,6.65,
6153.000,6.7,
6152.000,6.75,
6151.000,6.81,
6150.000,6.87,
6149.000,6.93,
6148.000,6.99,
6147.000,7.06,
6146.000,7.12,
6145.000,7.19,
6144.000,7.25,
6143.000,7.32,
6142.000,7.39,
6141.000,7.46,
6140.000,7.54,
6139.000,7.62,
6138.000,7.69,
6137.000,7.77,
6136.000,7.84,
6135.000,7.92,
6134.000,8,
6133.000,8.07,
6132.000,8.15,
6131.000,8.23,
6130.000,8.32,
6129.000,8.42,
6128.000,8.51,
6127.000,8.62,
6126.000,8.72,
6125.000,8.83,
6124.000,8.94,
6123.000,9.05,
6122.000,9.17,
6121.000,9.29,
6120.000,9.42,
6119.000,9.56,
6118.000,9.7,
6117.000,9.85,
6116.000,10,
6115.000,10.15,
6114.000,10.31,
6113.000,10.48,
6112.000,10.65,
6111.000,10.84,
6110.000,11.03,
6109.000,11.22,
6108.000,11.41,
6107.000,11.61,
6106.000,11.82,
6105.000,12.03,
6104.000,12.25,
6103.000,12.47,
6102.000,12.7,
6101.000,12.93,
6100.000,13.16,
6099.000,13.4,
6098.000,13.65,
6097.000,13.9,
6096.000,14.16,
6095.000,14.42,
6094.000,14.68,
6093.000,14.93,
6092.000,15.19,
6091.000,15.45,
6090.000,15.71,
6089.000,15.97,
6088.000,16.22,
6087.000,16.47,
6086.000,16.72,
6085.000,16.96,
6084.000,17.21,
6083.000,17.45,
6082.000,17.68,
6081.000,17.91,
6080.000,18.13,
6079.000,18.34,
6078.000,18.54,
6077.000,18.73,
6076.000,18.91,
6075.000,19.08,
6074.000,19.23,
6073.000,19.38,
6072.000,19.51,
6071.000,19.62,
6070.000,19.72,
6069.000,19.81,
6068.000,19.88,
6067.000,19.93,
6066.000,19.96,
6065.000,19.98,
6064.000,19.99,
6063.000,19.98,
6062.000,19.95,
6061.000,19.9,
6060.000,19.84,
6059.000,19.76,
6058.000,19.67,
6057.000,19.56,
6056.000,19.45,
6055.000,19.32,
6054.000,19.17,
6053.000,19.01,
6052.000,18.84,
6051.000,18.65,
6050.000,18.46,
6049.000,18.25,
6048.000,18.04,
6047.000,17.82,
6046.000,17.6,
6045.000,17.36,
6044.000,17.13,
6043.000,16.88,
6042.000,16.64,
6041.000,16.38,
6040.000,16.13,
6039.000,15.87,
6038.000,15.61,
6037.000,15.35,
6036.000,15.09,
6035.000,14.83,
6034.000,14.57,
6033.000,14.31,
6032.000,14.06,
6031.000,13.8,
6030.000,13.55,
6029.000,13.3,
6028.000,13.06,
6027.000,12.82,
6026.000,12.58,
6025.000,12.34,
6024.000,12.11,
6023.000,11.88,
6022.000,11.65,
6021.000,11.43,
6020.000,11.22,
6019.000,11.01,
6018.000,10.81,
6017.000,10.61,
6016.000,10.42,
6015.000,10.23,
6014.000,10.04,
6013.000,9.85,
6012.000,9.67,
6011.000,9.49,
6010.000,9.32,
6009.000,9.15,
6008.000,8.99,
6007.000,8.83,
6006.000,8.68,
6005.000,8.53,
6004.000,8.39,
6003.000,8.25,
6002.000,8.13,
6001.000,8,
6000.000,7.88,
5999.000,7.77,
5998.000,7.65,
5997.000,7.54,
5996.000,7.43,
5995.000,7.32,
5994.000,7.22,
5993.000,7.12,
5992.000,7.03,
5991.000,6.94,
5990.000,6.85,
5989.000,6.77,
5988.000,6.69,
5987.000,6.62,
5986.000,6.55,
5985.000,6.48,
5984.000,6.41,
5983.000,6.34,
5982.000,6.28,
5981.000,6.22,
5980.000,6.16,
5979.000,6.11,
5978.000,6.06,
5977.000,6.01,
5976.000,5.96,
5975.000,5.92,
5974.000,5.88,
5973.000,5.84,
5972.000,5.81,
5971.000,5.78,
5970.000,5.74,
5969.000,5.71,
5968.000,5.68,
5967.000,5.66,
5966.000,5.63,
5965.000,5.61,
5964.000,5.59,
5963.000,5.58,
5962.000,5.56,
5961.000,5.55,
5960.000,5.54,
5959.000,5.53,
5958.000,5.53,
5957.000,5.52,
5956.000,5.51,
5955.000,5.51,
5954.000,5.51,
5953.000,5.51,
5952.000,5.51,
5951.000,5.51,
5950.000,5.51,
5949.000,5.52,
5948.000,5.52,
5947.000,5.53,
5946.000,5.55,
5945.000,5.56,
5944.000,5.58,
5943.000,5.6,
5942.000,5.62,
5941.000,5.65,
5940.000,5.67,
5939.000,5.7,
5938.000,5.73,
5937.000,5.76,
5936.000,5.79,
5935.000,5.83,
5934.000,5.87,
5933.000,5.91,
5932.000,5.96,
5931.000,6.01,
5930.000,6.06,
5929.000,6.11,
5928.000,6.17,
5927.000,6.22,
5926.000,6.28,
5925.000,6.34,
5924.000,6.4,
5923.000,6.46,
5922.000,6.54,
5921.000,6.62,
5920.000,6.7,
5919.000,6.79,
5918.000,6.89,
5917.000,6.98,
5916.000,7.07,
5915.000,7.17,
5914.000,7.27,
5913.000,7.37,
5912.000,7.48,
5911.000,7.6,
5910.000,7.72,
5909.000,7.85,
5908.000,7.98,
5907.000,8.12,
5906.000,8.25,
5905.000,8.39,
5904.000,8.53,
5903.000,8.68,
5902.000,8.83,
5901.000,8.99,
5900.000,9.16,
5899.000,9.33,
5898.000,9.51,
5897.000,9.7,
5896.000,9.88,
5895.000,10.08,
5894.000,10.28,
5893.000,10.49,
5892.000,10.7,
5891.000,10.92,
5890.000,11.15,
5889.000,11.38,
5888.000,11.61,
5887.000,11.85,
5886.000,12.1,
5885.000,12.35,
5884.000,12.6,
5883.000,12.86,
5882.000,13.13,
5881.000,13.4,
5880.000,13.67,
5879.000,13.95,
5878.000,14.22,
5877.000,14.5,
5876.000,14.78,
5875.000,15.06,
5874.000,15.34,
5873.000,15.62,
5872.000,15.9,
5871.000,16.18,
5870.000,16.45,
5869.000,16.72,
5868.000,16.99,
5867.000,17.25,
5866.000,17.51,
5865.000,17.76,
5864.000,18.01,
5863.000,18.24,
5862.000,18.47,
5861.000,18.68,
5860.000,18.88,
5859.000,19.07,
5858.000,19.25,
5857.000,19.42,
5856.000,19.57,
5855.000,19.71,
5854.000,19.83,
5853.000,19.94,
5852.000,20.02,
5851.000,20.1,
5850.000,20.16,
5849.000,20.2,
5848.000,20.22,
5847.000,20.24,
5846.000,20.23,
5845.000,20.2,
5844.000,20.15,
5843.000,20.08,
5842.000,19.99,
5841.000,19.88,
5840.000,19.76,
5839.000,19.63,
5838.000,19.48,
5837.000,19.32,
5836.000,19.15,
5835.000,18.96,
5834.000,18.77,
5833.000,18.56,
5832.000,18.34,
5831.000,18.11,
5830.000,17.88,
5829.000,17.63,
5828.000,17.38,
5827.000,17.13,
5826.000,16.87,
5825.000,16.61,
5824.000,16.34,
5823.000,16.08,
5822.000,15.83,
5821.000,15.56,
5820.000,15.3,
5819.000,15.03,
5818.000,14.75,
5817.000,14.48,
5816.000,14.21,
5815.000,13.94,
5814.000,13.68,
5813.000,13.43,
5812.000,13.18,
5811.000,12.93,
5810.000,12.68,
5809.000,12.44,
5808.000,12.2,
5807.000,11.96,
5806.000,11.72,
5805.000,11.49,
5804.000,11.26,
5803.000,11.04,
5802.000,10.83,
5801.000,10.62,
5800.000,10.42,
5799.000,10.22,
5798.000,10.02,
5797.000,9.84,
5796.000,9.65,
5795.000,9.47,
5794.000,9.3,
5793.000,9.12,
5792.000,8.96,
5791.000,8.79,
5790.000,8.63,
5789.000,8.48,
5788.000,8.34,
5787.000,8.19,
5786.000,8.06,
5785.000,7.92,
5784.000,7.8,
5783.000,7.67,
5782.000,7.55,
5781.000,7.43,
5780.000,7.32,
5779.000,7.21,
5778.000,7.11,
5777.000,7.01,
5776.000,6.91,
5775.000,6.82,
5774.000,6.73,
5773.000,6.63,
5772.000,6.54,
5771.000,6.46,
5770.000,6.38,
5769.000,6.31,
5768.000,6.24,
5767.000,6.17,
5766.000,6.11,
5765.000,6.04,
5764.000,5.98,
5763.000,5.92,
5762.000,5.87,
5761.000,5.82,
5760.000,5.77,
5759.000,5.73,
5758.000,5.69,
5757.000,5.64,
5756.000,5.6,
5755.000,5.56,
5754.000,5.52,
5753.000,5.48,
5752.000,5.45,
5751.000,5.42,
5750.000,5.4,
5749.000,5.37,
5748.000,5.35,
5747.000,5.33,
5746.000,5.31,
5745.000,5.3,
5744.000,5.28,
5743.000,5.27,
5742.000,5.25,
5741.000,5.24,
5740.000,5.23,
5739.000,5.22,
5738.000,5.21,
5737.000,5.21,
5736.000,5.21,
5735.000,5.22,
5734.000,5.23,
5733.000,5.24,
5732.000,5.25,
5731.000,5.26,
5730.000,5.27,
5729.000,5.28,
5728.000,5.3,
5727.000,5.31,
5726.000,5.33,
5725.000,5.35,
5724.000,5.37,
5723.000,5.39,
5722.000,5.42,
5721.000,5.46,
5720.000,5.49,
5719.000,5.53,
5718.000,5.57,
5717.000,5.6,
5716.000,5.64,
5715.000,5.68,
5714.000,5.72,
5713.000,5.77,
5712.000,5.82,
5711.000,5.88,
5710.000,5.93,
5709.000,5.99,
5708.000,6.05,
5707.000,6.12,
5706.000,6.19,
5705.000,6.26,
5704.000,6.34,
5703.000,6.42,
5702.000,6.5,
5701.000,6.58,
5700.000,6.67,
5699.000,6.76,
5698.000,6.85,
5697.000,6.95,
5696.000,7.05,
5695.000,7.16,
5694.000,7.28,
5693.000,7.39,
5692.000,7.51,
5691.000,7.63,
5690.000,7.76,
5689.000,7.89,
5688.000,8.03,
5687.000,8.18,
5686.000,8.34,
5685.000,8.5,
5684.000,8.67,
5683.000,8.84,
5682.000,9.02,
5681.000,9.2,
5680.000,9.38,
5679.000,9.57,
5678.000,9.76,
5677.000,9.96,
5676.000,10.17,
5675.000,10.39,
5674.000,10.62,
5673.000,10.85,
5672.000,11.09,
5671.000,11.33,
5670.000,11.58,
5669.000,11.84,
5668.000,12.1,
5667.000,12.36,
5666.000,12.64,
5665.000,12.92,
5664.000,13.21,
5663.000,13.5,
5662.000,13.79,
5661.000,14.09,
5660.000,14.39,
5659.000,14.69,
5658.000,15,
5657.000,15.31,
5656.000,15.62,
5655.000,15.94,
5654.000,16.25,
5653.000,16.56,
5652.000,16.87,
5651.000,17.17,
5650.000,17.47,
5649.000,17.76,
5648.000,18.05,
5647.000,18.33,
5646.000,18.6,
5645.000,18.86,
5644.000,19.1,
5643.000,19.34,
5642.000,19.57,
5641.000,19.79,
5640.000,19.99,
5639.000,20.18,
5638.000,20.34,
5637.000,20.49,
5636.000,20.62,
5635.000,20.73,
5634.000,20.82,
5633.000,20.9,
5632.000,20.96,
5631.000,21,
5630.000,21.01,
5629.000,21,
5628.000,20.97,
5627.000,20.92,
5626.000,20.85,
5625.000,20.75,
5624.000,20.64,
5623.000,20.52,
5622.000,20.38,
5621.000,20.22,
5620.000,20.05,
5619.000,19.86,
5618.000,19.66,
5617.000,19.45,
5616.000,19.23,
5615.000,18.99,
5614.000,18.74,
5613.000,18.48,
5612.000,18.21,
5611.000,17.94,
5610.000,17.66,
5609.000,17.38,
5608.000,17.1,
5607.000,16.82,
5606.000,16.53,
5605.000,16.25,
5604.000,15.96,
5603.000,15.67,
5602.000,15.38,
5601.000,15.09,
5600.000,14.8,
5599.000,14.51,
5598.000,14.23,
5597.000,13.95,
5596.000,13.68,
5595.000,13.4,
5594.000,13.14,
5593.000,12.87,
5592.000,12.62,
5591.000,12.37,
5590.000,12.12,
5589.000,11.88,
5588.000,11.64,
5587.000,11.41,
5586.000,11.18,
5585.000,10.96,
5584.000,10.76,
5583.000,10.55,
5582.000,10.36,
5581.000,10.16,
5580.000,9.97,
5579.000,9.79,
5578.000,9.61,
5577.000,9.43,
5576.000,9.26,
5575.000,9.09,
5574.000,8.94,
5573.000,8.78,
5572.000,8.63,
5571.000,8.48,
5570.000,8.34,
5569.000,8.19,
5568.000,8.05,
5567.000,7.91,
5566.000,7.77,
5565.000,7.64,
5564.000,7.52,
5563.000,7.41,
5562.000,7.3,
5561.000,7.19,
5560.000,7.08,
5559.000,6.98,
5558.000,6.88,
5557.000,6.78,
5556.000,6.69,
5555.000,6.6,
5554.000,6.52,
5553.000,6.43,
5552.000,6.35,
5551.000,6.27,
5550.000,6.19,
5549.000,6.12,
5548.000,6.05,
5547.000,5.98,
5546.000,5.92,
5545.000,5.86,
5544.000,5.81,
5543.000,5.76,
5542.000,5.71,
5541.000,5.66,
5540.000,5.61,
5539.000,5.56,
5538.000,5.52,
5537.000,5.47,
5536.000,5.44,
5535.000,5.4,
5534.000,5.37,
5533.000,5.33,
5532.000,5.3,
5531.000,5.28,
5530.000,5.25,
5529.000,5.23,
5528.000,5.2,
5527.000,5.18,
5526.000,5.16,
5525.000,5.14,
5524.000,5.12,
5523.000,5.11,
5522.000,5.1,
5521.000,5.09,
5520.000,5.08,
5519.000,5.08,
5518.000,5.08,
5517.000,5.07,
5516.000,5.08,
5515.000,5.08,
5514.000,5.09,
5513.000,5.09,
5512.000,5.1,
5511.000,5.11,
5510.000,5.12,
5509.000,5.13,
5508.000,5.15,
5507.000,5.17,
5506.000,5.2,
5505.000,5.22,
5504.000,5.24,
5503.000,5.26,
5502.000,5.29,
5501.000,5.32,
5500.000,5.35,
5499.000,5.39,
5498.000,5.43,
5497.000,5.46,
5496.000,5.51,
5495.000,5.56,
5494.000,5.61,
5493.000,5.66,
5492.000,5.72,
5491.000,5.77,
5490.000,5.83,
5489.000,5.89,
5488.000,5.95,
5487.000,6.02,
5486.000,6.09,
5485.000,6.17,
5484.000,6.25,
5483.000,6.33,
5482.000,6.42,
5481.000,6.51,
5480.000,6.6,
5479.000,6.7,
5478.000,6.8,
5477.000,6.91,
5476.000,7.02,
5475.000,7.13,
5474.000,7.25,
5473.000,7.38,
5472.000,7.51,
5471.000,7.65,
5470.000,7.79,
5469.000,7.94,
5468.000,8.09,
5467.000,8.25,
5466.000,8.42,
5465.000,8.59,
5464.000,8.76,
5463.000,8.95,
5462.000,9.13,
5461.000,9.33,
5460.000,9.53,
5459.000,9.74,
5458.000,9.96,
5457.000,10.19,
5456.000,10.42,
5455.000,10.66,
5454.000,10.91,
5453.000,11.16,
5452.000,11.42,
5451.000,11.69,
5450.000,11.97,
5449.000,12.25,
5448.000,12.54,
5447.000,12.84,
5446.000,13.15,
5445.000,13.47,
5444.000,13.79,
5443.000,14.11,
5442.000,14.43,
5441.000,14.75,
5440.000,15.08,
5439.000,15.4,
5438.000,15.73,
5437.000,16.06,
5436.000,16.39,
5435.000,16.71,
5434.000,17.04,
5433.000,17.36,
5432.000,17.68,
5431.000,18,
5430.000,18.31,
5429.000,18.6,
5428.000,18.89,
5427.000,19.16,
5426.000,19.43,
5425.000,19.67,
5424.000,19.89,
5423.000,20.09,
5422.000,20.27,
5421.000,20.44,
5420.000,20.59,
5419.000,20.72,
5418.000,20.83,
5417.000,20.91,
5416.000,20.98,
5415.000,21.03,
5414.000,21.07,
5413.000,21.08,
5412.000,21.07,
5411.000,21.04,
5410.000,20.98,
5409.000,20.89,
5408.000,20.78,
5407.000,20.64,
5406.000,20.48,
5405.000,20.29,
5404.000,20.09,
5403.000,19.87,
5402.000,19.64,
5401.000,19.4,
5400.000,19.15,
5399.000,18.89,
5398.000,18.62,
5397.000,18.34,
5396.000,18.06,
5395.000,17.77,
5394.000,17.47,
5393.000,17.16,
5392.000,16.85,
5391.000,16.54,
5390.000,16.22,
5389.000,15.9,
5388.000,15.57,
5387.000,15.24,
5386.000,14.92,
5385.000,14.59,
5384.000,14.28,
5383.000,13.97,
5382.000,13.66,
5381.000,13.36,
5380.000,13.07,
5379.000,12.78,
5378.000,12.49,
5377.000,12.2,
5376.000,11.92,
5375.000,11.65,
5374.000,11.39,
5373.000,11.13,
5372.000,10.88,
5371.000,10.63,
5370.000,10.38,
5369.000,10.14,
5368.000,9.9,
5367.000,9.68,
5366.000,9.46,
5365.000,9.25,
5364.000,9.05,
5363.000,8.85,
5362.000,8.66,
5361.000,8.47,
5360.000,8.29,
5359.000,8.12,
5358.000,7.95,
5357.000,7.8,
5356.000,7.65,
5355.000,7.5,
5354.000,7.36,
5353.000,7.22,
5352.000,7.08,
5351.000,6.95,
5350.000,6.83,
5349.000,6.71,
5348.000,6.6,
5347.000,6.49,
5346.000,6.39,
5345.000,6.29,
5344.000,6.19,
5343.000,6.09,
5342.000,6,
5341.000,5.92,
5340.000,5.84,
5339.000,5.76,
5338.000,5.68,
5337.000,5.61,
5336.000,5.53,
5335.000,5.46,
5334.000,5.4,
5333.000,5.33,
5332.000,5.27,
5331.000,5.21,
5330.000,5.15,
5329.000,5.1,
5328.000,5.05,
5327.000,5.01,
5326.000,4.96,
5325.000,4.92,
5324.000,4.89,
5323.000,4.85,
5322.000,4.82,
5321.000,4.79,
5320.000,4.76,
5319.000,4.73,
5318.000,4.7,
5317.000,4.67,
5316.000,4.64,
5315.000,4.62,
5314.000,4.59,
5313.000,4.57,
5312.000,4.56,
5311.000,4.54,
5310.000,4.53,
5309.000,4.52,
5308.000,4.51,
5307.000,4.51,
5306.000,4.5,
5305.000,4.5,
5304.000,4.5,
5303.000,4.5,
5302.000,4.5,
5301.000,4.5,
5300.000,4.51,
5299.000,4.51,
5298.000,4.52,
5297.000,4.53,
5296.000,4.54,
5295.000,4.55,
5294.000,4.56,
5293.000,4.58,
5292.000,4.59,
5291.000,4.61,
5290.000,4.63,
5289.000,4.66,
5288.000,4.68,
5287.000,4.71,
5286.000,4.74,
5285.000,4.77,
5284.000,4.81,
5283.000,4.84,
5282.000,4.88,
5281.000,4.92,
5280.000,4.96,
5279.000,5.01,
5278.000,5.05,
5277.000,5.1,
5276.000,5.15,
5275.000,5.2,
5274.000,5.26,
5273.000,5.32,
5272.000,5.39,
5271.000,5.45,
5270.000,5.52,
5269.000,5.59,
5268.000,5.67,
5267.000,5.75,
5266.000,5.83,
5265.000,5.92,
5264.000,6.01,
5263.000,6.1,
5262.000,6.2,
5261.000,6.3,
5260.000,6.4,
5259.000,6.51,
5258.000,6.63,
5257.000,6.74,
5256.000,6.87,
5255.000,7,
5254.000,7.13,
5253.000,7.27,
5252.000,7.42,
5251.000,7.58,
5250.000,7.74,
5249.000,7.9,
5248.000,8.07,
5247.000,8.25,
5246.000,8.44,
5245.000,8.63,
5244.000,8.82,
5243.000,9.03,
5242.000,9.23,
5241.000,9.45,
5240.000,9.68,
5239.000,9.91,
5238.000,10.15,
5237.000,10.4,
5236.000,10.66,
5235.000,10.92,
5234.000,11.19,
5233.000,11.48,
5232.000,11.77,
5231.000,12.07,
5230.000,12.38,
5229.000,12.69,
5228.000,13.01,
5227.000,13.34,
5226.000,13.68,
5225.000,14.02,
5224.000,14.36,
5223.000,14.71,
5222.000,15.05,
5221.000,15.4,
5220.000,15.75,
5219.000,16.1,
5218.000,16.45,
5217.000,16.8,
5216.000,17.14,
5215.000,17.48,
5214.000,17.81,
5213.000,18.13,
5212.000,18.45,
5211.000,18.76,
5210.000,19.06,
5209.000,19.35,
5208.000,19.62,
5207.000,19.88,
5206.000,20.12,
5205.000,20.35,
5204.000,20.55,
5203.000,20.72,
5202.000,20.87,
5201.000,20.99,
5200.000,21.08,
5199.000,21.15,
5198.000,21.2,
5197.000,21.21,
5196.000,21.21,
5195.000,21.18,
5194.000,21.13,
5193.000,21.05,
5192.000,20.95,
5191.000,20.82,
5190.000,20.67,
5189.000,20.5,
5188.000,20.3,
5187.000,20.09,
5186.000,19.86,
5185.000,19.61,
5184.000,19.34,
5183.000,19.07,
5182.000,18.78,
5181.000,18.48,
5180.000,18.17,
5179.000,17.84,
5178.000,17.51,
5177.000,17.18,
5176.000,16.84,
5175.000,16.51,
5174.000,16.16,
5173.000,15.82,
5172.000,15.47,
5171.000,15.13,
5170.000,14.79,
5169.000,14.46,
5168.000,14.13,
5167.000,13.8,
5166.000,13.48,
5165.000,13.16,
5164.000,12.84,
5163.000,12.53,
5162.000,12.23,
5161.000,11.93,
5160.000,11.65,
5159.000,11.37,
5158.000,11.09,
5157.000,10.81,
5156.000,10.55,
5155.000,10.29,
5154.000,10.03,
5153.000,9.79,
5152.000,9.55,
5151.000,9.33,
5150.000,9.11,
5149.000,8.89,
5148.000,8.68,
5147.000,8.48,
5146.000,8.29,
5145.000,8.09,
5144.000,7.91,
5143.000,7.73,
5142.000,7.56,
5141.000,7.4,
5140.000,7.24,
5139.000,7.09,
5138.000,6.94,
5137.000,6.8,
5136.000,6.66,
5135.000,6.53,
5134.000,6.41,
5133.000,6.29,
5132.000,6.18,
5131.000,6.07,
5130.000,5.96,
5129.000,5.86,
5128.000,5.76,
5127.000,5.66,
5126.000,5.57,
5125.000,5.48,
5124.000,5.39,
5123.000,5.31,
5122.000,5.24,
5121.000,5.17,
5120.000,5.1,
5119.000,5.04,
5118.000,4.97,
5117.000,4.91,
5116.000,4.84,
5115.000,4.79,
5114.000,4.73,
5113.000,4.68,
5112.000,4.63,
5111.000,4.59,
5110.000,4.54,
5109.000,4.5,
5108.000,4.46,
5107.000,4.42,
5106.000,4.39,
5105.000,4.35,
5104.000,4.32,
5103.000,4.29,
5102.000,4.26,
5101.000,4.23,
5100.000,4.21,
5099.000,4.19,
5098.000,4.17,
5097.000,4.15,
5096.000,4.13,
5095.000,4.12,
5094.000,4.1,
5093.000,4.09,
5092.000,4.08,
5091.000,4.07,
5090.000,4.06,
5089.000,4.05,
5088.000,4.05,
5087.000,4.04,
5086.000,4.04,
5085.000,4.04,
5084.000,4.05,
5083.000,4.05,
5082.000,4.06,
5081.000,4.07,
5080.000,4.08,
5079.000,4.09,
5078.000,4.09,
5077.000,4.1,
5076.000,4.11,
5075.000,4.13,
5074.000,4.14,
5073.000,4.16,
5072.000,4.19,
5071.000,4.21,
5070.000,4.24,
5069.000,4.27,
5068.000,4.29,
5067.000,4.32,
5066.000,4.35,
5065.000,4.39,
5064.000,4.42,
5063.000,4.46,
5062.000,4.5,
5061.000,4.54,
5060.000,4.58,
5059.000,4.63,
5058.000,4.68,
5057.000,4.73,
5056.000,4.78,
5055.000,4.84,
5054.000,4.9,
5053.000,4.97,
5052.000,5.04,
5051.000,5.11,
5050.000,5.18,
5049.000,5.25,
5048.000,5.33,
5047.000,5.41,
5046.000,5.5,
5045.000,5.59,
5044.000,5.68,
5043.000,5.78,
5042.000,5.88,
5041.000,5.98,
5040.000,6.09,
5039.000,6.21,
5038.000,6.33,
5037.000,6.46,
5036.000,6.59,
5035.000,6.73,
5034.000,6.87,
5033.000,7.02,
5032.000,7.18,
5031.000,7.34,
5030.000,7.51,
5029.000,7.69,
5028.000,7.88,
5027.000,8.07,
5026.000,8.27,
5025.000,8.47,
5024.000,8.68,
5023.000,8.9,
5022.000,9.13,
5021.000,9.38,
5020.000,9.63,
5019.000,9.89,
5018.000,10.15,
5017.000,10.43,
5016.000,10.71,
5015.000,11,
5014.000,11.3,
5013.000,11.61,
5012.000,11.92,
5011.000,12.25,
5010.000,12.58,
5009.000,12.92,
5008.000,13.27,
5007.000,13.62,
5006.000,13.98,
5005.000,14.34,
5004.000,14.7,
5003.000,15.06,
5002.000,15.43,
5001.000,15.8,
5000.000,16.16,
4999.000,16.52,
4998.000,16.87,
4997.000,17.22,
4996.000,17.56,
4995.000,17.9,
4994.000,18.22,
4993.000,18.52,
4992.000,18.81,
4991.000,19.08,
4990.000,19.34,
4989.000,19.57,
4988.000,19.78,
4987.000,19.97,
4986.000,20.14,
4985.000,20.28,
4984.000,20.39,
4983.000,20.48,
4982.000,20.54,
4981.000,20.57,
4980.000,20.57,
4979.000,20.54,
4978.000,20.49,
4977.000,20.41,
4976.000,20.3,
4975.000,20.17,
4974.000,20.01,
4973.000,19.83,
4972.000,19.63,
4971.000,19.41,
4970.000,19.17,
4969.000,18.91,
4968.000,18.63,
4967.000,18.34,
4966.000,18.04,
4965.000,17.72,
4964.000,17.4,
4963.000,17.07,
4962.000,16.73,
4961.000,16.39,
4960.000,16.04,
4959.000,15.69,
4958.000,15.34,
4957.000,14.98,
4956.000,14.63,
4955.000,14.28,
4954.000,13.93,
4953.000,13.58,
4952.000,13.24,
4951.000,12.9,
4950.000,12.57,
4949.000,12.24,
4948.000,11.92,
4947.000,11.61,
4946.000,11.31,
4945.000,11.01,
4944.000,10.72,
4943.000,10.44,
4942.000,10.16,
4941.000,9.89,
4940.000,9.63,
4939.000,9.38,
4938.000,9.13,
4937.000,8.9,
4936.000,8.67,
4935.000,8.45,
4934.000,8.23,
4933.000,8.02,
4932.000,7.82,
4931.000,7.63,
4930.000,7.44,
4929.000,7.26,
4928.000,7.09,
4927.000,6.93,
4926.000,6.77,
4925.000,6.61,
4924.000,6.46,
4923.000,6.32,
4922.000,6.18,
4921.000,6.05,
4920.000,5.93,
4919.000,5.81,
4918.000,5.69,
4917.000,5.58,
4916.000,5.47,
4915.000,5.37,
4914.000,5.28,
4913.000,5.18,
4912.000,5.09,
4911.000,5,
4910.000,4.92,
4909.000,4.84,
4908.000,4.77,
4907.000,4.69,
4906.000,4.63,
4905.000,4.56,
4904.000,4.5,
4903.000,4.44,
4902.000,4.39,
4901.000,4.33,
4900.000,4.28,
4899.000,4.23,
4898.000,4.18,
4897.000,4.14,
4896.000,4.09,
4895.000,4.05,
4894.000,4.01,
4893.000,3.98,
4892.000,3.94,
4891.000,3.91,
4890.000,3.88,
4889.000,3.85,
4888.000,3.82,
4887.000,3.79,
4886.000,3.77,
4885.000,3.74,
4884.000,3.72,
4883.000,3.7,
4882.000,3.69,
4881.000,3.67,
4880.000,3.65,
4879.000,3.64,
4878.000,3.63,
4877.000,3.62,
4876.000,3.61,
4875.000,3.6,
4874.000,3.6,
4873.000,3.59,
4872.000,3.59,
4871.000,3.58,
4870.000,3.58,
4869.000,3.59,
4868.000,3.59,
4867.000,3.6,
4866.000,3.61,
4865.000,3.61,
4864.000,3.62,
4863.000,3.63,
4862.000,3.64,
4861.000,3.65,
4860.000,3.66,
4859.000,3.67,
4858.000,3.69,
4857.000,3.71,
4856.000,3.73,
4855.000,3.75,
4854.000,3.78,
4853.000,3.8,
4852.000,3.82,
4851.000,3.85,
4850.000,3.88,
4849.000,3.91,
4848.000,3.94,
4847.000,3.98,
4846.000,4.01,
4845.000,4.05,
4844.000,4.09,
4843.000,4.14,
4842.000,4.18,
4841.000,4.23,
4840.000,4.28,
4839.000,4.34,
4838.000,4.4,
4837.000,4.45,
4836.000,4.51,
4835.000,4.58,
4834.000,4.64,
4833.000,4.71,
4832.000,4.79,
4831.000,4.86,
4830.000,4.95,
4829.000,5.03,
4828.000,5.12,
4827.000,5.21,
4826.000,5.3,
4825.000,5.4,
4824.000,5.5,
4823.000,5.61,
4822.000,5.73,
4821.000,5.84,
4820.000,5.97,
4819.000,6.1,
4818.000,6.23,
4817.000,6.37,
4816.000,6.52,
4815.000,6.68,
4814.000,6.84,
4813.000,7.01,
4812.000,7.19,
4811.000,7.38,
4810.000,7.57,
4809.000,7.77,
4808.000,7.98,
4807.000,8.2,
4806.000,8.43,
4805.000,8.67,
4804.000,8.92,
4803.000,9.17,
4802.000,9.44,
4801.000,9.71,
4800.000,10,
4799.000,10.29,
4798.000,10.6,
4797.000,10.91,
4796.000,11.24,
4795.000,11.57,
4794.000,11.92,
4793.000,12.27,
4792.000,12.63,
4791.000,13,
4790.000,13.38,
4789.000,13.76,
4788.000,14.15,
4787.000,14.54,
4786.000,14.93,
4785.000,15.32,
4784.000,15.72,
4783.000,16.11,
4782.000,16.5,
4781.000,16.89,
4780.000,17.26,
4779.000,17.63,
4778.000,17.98,
4777.000,18.32,
4776.000,18.64,
4775.000,18.94,
4774.000,19.23,
4773.000,19.49,
4772.000,19.73,
4771.000,19.94,
4770.000,20.12,
4769.000,20.28,
4768.000,20.4,
4767.000,20.5,
4766.000,20.56,
4765.000,20.6,
4764.000,20.59,
4763.000,20.56,
4762.000,20.49,
4761.000,20.39,
4760.000,20.26,
4759.000,20.11,
4758.000,19.93,
4757.000,19.72,
4756.000,19.49,
4755.000,19.23,
4754.000,18.96,
4753.000,18.66,
4752.000,18.35,
4751.000,18.02,
4750.000,17.68,
4749.000,17.33,
4748.000,16.98,
4747.000,16.62,
4746.000,16.25,
4745.000,15.88,
4744.000,15.5,
4743.000,15.12,
4742.000,14.74,
4741.000,14.36,
4740.000,13.98,
4739.000,13.61,
4738.000,13.25,
4737.000,12.89,
4736.000,12.53,
4735.000,12.18,
4734.000,11.84,
4733.000,11.5,
4732.000,11.17,
4731.000,10.85,
4730.000,10.54,
4729.000,10.23,
4728.000,9.94,
4727.000,9.65,
4726.000,9.37,
4725.000,9.1,
4724.000,8.84,
4723.000,8.59,
4722.000,8.34,
4721.000,8.11,
4720.000,7.88,
4719.000,7.67,
4718.000,7.46,
4717.000,7.26,
4716.000,7.06,
4715.000,6.88,
4714.000,6.7,
4713.000,6.53,
4712.000,6.36,
4711.000,6.2,
4710.000,6.05,
4709.000,5.91,
4708.000,5.77,
4707.000,5.64,
4706.000,5.51,
4705.000,5.39,
4704.000,5.27,
4703.000,5.16,
4702.000,5.05,
4701.000,4.95,
4700.000,4.86,
4699.000,4.76,
4698.000,4.68,
4697.000,4.59,
4696.000,4.51,
4695.000,4.43,
4694.000,4.35,
4693.000,4.28,
4692.000,4.2,
4691.000,4.14,
4690.000,4.07,
4689.000,4.01,
4688.000,3.95,
4687.000,3.9,
4686.000,3.85,
4685.000,3.79,
4684.000,3.74,
4683.000,3.7,
4682.000,3.65,
4681.000,3.61,
4680.000,3.57,
4679.000,3.53,
4678.000,3.5,
4677.000,3.47,
4676.000,3.44,
4675.000,3.41,
4674.000,3.38,
4673.000,3.35,
4672.000,3.33,
4671.000,3.31,
4670.000,3.29,
4669.000,3.27,
4668.000,3.25,
4667.000,3.23,
4666.000,3.22,
4665.000,3.2,
4664.000,3.19,
4663.000,3.17,
4662.000,3.16,
4661.000,3.15,
4660.000,3.14,
4659.000,3.14,
4658.000,3.13,
4657.000,3.13,
4656.000,3.13,
4655.000,3.12,
4654.000,3.12,
4653.000,3.12,
4652.000,3.12,
4651.000,3.12,
4650.000,3.13,
4649.000,3.13,
4648.000,3.14,
4647.000,3.15,
4646.000,3.16,
4645.000,3.17,
4644.000,3.18,
4643.000,3.19,
4642.000,3.2,
4641.000,3.22,
4640.000,3.23,
4639.000,3.25,
4638.000,3.27,
4637.000,3.29,
4636.000,3.31,
4635.000,3.33,
4634.000,3.36,
4633.000,3.38,
4632.000,3.41,
4631.000,3.44,
4630.000,3.47,
4629.000,3.5,
4628.000,3.54,
4627.000,3.58,
4626.000,3.62,
4625.000,3.66,
4624.000,3.7,
4623.000,3.75,
4622.000,3.79,
4621.000,3.84,
4620.000,3.9,
4619.000,3.95,
4618.000,4.01,
4617.000,4.07,
4616.000,4.13,
4615.000,4.2,
4614.000,4.27,
4613.000,4.34,
4612.000,4.42,
4611.000,4.49,
4610.000,4.58,
4609.000,4.66,
4608.000,4.76,
4607.000,4.85,
4606.000,4.96,
4605.000,5.06,
4604.000,5.18,
4603.000,5.29,
4602.000,5.41,
4601.000,5.54,
4600.000,5.67,
4599.000,5.8,
4598.000,5.95,
4597.000,6.1,
4596.000,6.26,
4595.000,6.43,
4594.000,6.6,
4593.000,6.79,
4592.000,6.98,
4591.000,7.17,
4590.000,7.38,
4589.000,7.6,
4588.000,7.83,
4587.000,8.07,
4586.000,8.32,
4585.000,8.58,
4584.000,8.85,
4583.000,9.13,
4582.000,9.42,
4581.000,9.72,
4580.000,10.04,
4579.000,10.36,
4578.000,10.7,
4577.000,11.05,
4576.000,11.4,
4575.000,11.77,
4574.000,12.14,
4573.000,12.52,
4572.000,12.91,
4571.000,13.31,
4570.000,13.71,
4569.000,14.12,
4568.000,14.53,
4567.000,14.94,
4566.000,15.34,
4565.000,15.74,
4564.000,16.14,
4563.000,16.53,
4562.000,16.91,
4561.000,17.28,
4560.000,17.63,
4559.000,17.96,
4558.000,18.27,
4557.000,18.56,
4556.000,18.83,
4555.000,19.07,
4554.000,19.28,
4553.000,19.46,
4552.000,19.6,
4551.000,19.71,
4550.000,19.79,
4549.000,19.83,
4548.000,19.83,
4547.000,19.8,
4546.000,19.73,
4545.000,19.63,
4544.000,19.5,
4543.000,19.34,
4542.000,19.15,
4541.000,18.93,
4540.000,18.68,
4539.000,18.41,
4538.000,18.12,
4537.000,17.81,
4536.000,17.48,
4535.000,17.14,
4534.000,16.79,
4533.000,16.42,
4532.000,16.04,
4531.000,15.67,
4530.000,15.28,
4529.000,14.89,
4528.000,14.5,
4527.000,14.11,
4526.000,13.72,
4525.000,13.34,
4524.000,12.95,
4523.000,12.58,
4522.000,12.21,
4521.000,11.84,
4520.000,11.48,
4519.000,11.13,
4518.000,10.79,
4517.000,10.46,
4516.000,10.13,
4515.000,9.82,
4514.000,9.51,
4513.000,9.21,
4512.000,8.92,
4511.000,8.64,
4510.000,8.37,
4509.000,8.12,
4508.000,7.87,
4507.000,7.63,
4506.000,7.4,
4505.000,7.18,
4504.000,6.97,
4503.000,6.76,
4502.000,6.57,
4501.000,6.38,
4500.000,6.2,
4499.000,6.03,
4498.000,5.86,
4497.000,5.71,
4496.000,5.56,
4495.000,5.41,
4494.000,5.28,
4493.000,5.14,
4492.000,5.02,
4491.000,4.9,
4490.000,4.78,
4489.000,4.67,
4488.000,4.57,
4487.000,4.47,
4486.000,4.37,
4485.000,4.28,
4484.000,4.2,
4483.000,4.11,
4482.000,4.03,
4481.000,3.95,
4480.000,3.88,
4479.000,3.81,
4478.000,3.74,
4477.000,3.68,
4476.000,3.62,
4475.000,3.56,
4474.000,3.51,
4473.000,3.46,
4472.000,3.41,
4471.000,3.36,
4470.000,3.32,
4469.000,3.27,
4468.000,3.23,
4467.000,3.19,
4466.000,3.15,
4465.000,3.12,
4464.000,3.08,
4463.000,3.05,
4462.000,3.02,
4461.000,2.99,
4460.000,2.97,
4459.000,2.94,
4458.000,2.92,
4457.000,2.89,
4456.000,2.87,
4455.000,2.85,
4454.000,2.83,
4453.000,2.81,
4452.000,2.8,
4451.000,2.78,
4450.000,2.77,
4449.000,2.76,
4448.000,2.74,
4447.000,2.73,
4446.000,2.72,
4445.000,2.72,
4444.000,2.71,
4443.000,2.7,
4442.000,2.7,
4441.000,2.7,
4440.000,2.7,
4439.000,2.69,
4438.000,2.69,
4437.000,2.7,
4436.000,2.7,
4435.000,2.7,
4434.000,2.7,
4433.000,2.71,
4432.000,2.72,
4431.000,2.72,
4430.000,2.73,
4429.000,2.74,
4428.000,2.74,
4427.000,2.76,
4426.000,2.77,
4425.000,2.78,
4424.000,2.8,
4423.000,2.82,
4422.000,2.84,
4421.000,2.86,
4420.000,2.88,
4419.000,2.9,
4418.000,2.92,
4417.000,2.95,
4416.000,2.97,
4415.000,3,
4414.000,3.03,
4413.000,3.07,
4412.000,3.1,
4411.000,3.14,
4410.000,3.17,
4409.000,3.21,
4408.000,3.25,
4407.000,3.29,
4406.000,3.33,
4405.000,3.38,
4404.000,3.43,
4403.000,3.48,
4402.000,3.53,
4401.000,3.59,
4400.000,3.64,
4399.000,3.7,
4398.000,3.77,
4397.000,3.83,
4396.000,3.91,
4395.000,3.98,
4394.000,4.05,
4393.000,4.13,
4392.000,4.22,
4391.000,4.3,
4390.000,4.39,
4389.000,4.49,
4388.000,4.59,
4387.000,4.7,
4386.000,4.8,
4385.000,4.91,
4384.000,5.03,
4383.000,5.15,
4382.000,5.27,
4381.000,5.4,
4380.000,5.54,
4379.000,5.68,
4378.000,5.83,
4377.000,5.98,
4376.000,6.14,
4375.000,6.31,
4374.000,6.48,
4373.000,6.66,
4372.000,6.85,
4371.000,7.05,
4370.000,7.26,
4369.000,7.47,
4368.000,7.69,
4367.000,7.92,
4366.000,8.16,
4365.000,8.41,
4364.000,8.67,
4363.000,8.94,
4362.000,9.21,
4361.000,9.5,
4360.000,9.81,
4359.000,10.12,
4358.000,10.44,
4357.000,10.77,
4356.000,11.11,
4355.000,11.46,
4354.000,11.81,
4353.000,12.17,
4352.000,12.53,
4351.000,12.89,
4350.000,13.26,
4349.000,13.62,
4348.000,13.98,
4347.000,14.34,
4346.000,14.69,
4345.000,15.03,
4344.000,15.36,
4343.000,15.68,
4342.000,15.99,
4341.000,16.28,
4340.000,16.56,
4339.000,16.81,
4338.000,17.05,
4337.000,17.26,
4336.000,17.44,
4335.000,17.58,
4334.000,17.7,
4333.000,17.77,
4332.000,17.82,
4331.000,17.82,
4330.000,17.79,
4329.000,17.71,
4328.000,17.6,
4327.000,17.46,
4326.000,17.28,
4325.000,17.06,
4324.000,16.83,
4323.000,16.56,
4322.000,16.27,
4321.000,15.96,
4320.000,15.64,
4319.000,15.3,
4318.000,14.95,
4317.000,14.59,
4316.000,14.22,
4315.000,13.85,
4314.000,13.48,
4313.000,13.11,
4312.000,12.74,
4311.000,12.37,
4310.000,12.01,
4309.000,11.65,
4308.000,11.29,
4307.000,10.94,
4306.000,10.6,
4305.000,10.26,
4304.000,9.94,
4303.000,9.62,
4302.000,9.3,
4301.000,9,
4300.000,8.71,
4299.000,8.42,
4298.000,8.14,
4297.000,7.87,
4296.000,7.61,
4295.000,7.36,
4294.000,7.12,
4293.000,6.89,
4292.000,6.67,
4291.000,6.46,
4290.000,6.26,
4289.000,6.06,
4288.000,5.88,
4287.000,5.7,
4286.000,5.53,
4285.000,5.37,
4284.000,5.22,
4283.000,5.07,
4282.000,4.94,
4281.000,4.81,
4280.000,4.68,
4279.000,4.56,
4278.000,4.45,
4277.000,4.34,
4276.000,4.24,
4275.000,4.14,
4274.000,4.05,
4273.000,3.96,
4272.000,3.87,
4271.000,3.79,
4270.000,3.7,
4269.000,3.63,
4268.000,3.55,
4267.000,3.48,
4266.000,3.42,
4265.000,3.35,
4264.000,3.29,
4263.000,3.23,
4262.000,3.17,
4261.000,3.12,
4260.000,3.07,
4259.000,3.02,
4258.000,2.98,
4257.000,2.93,
4256.000,2.89,
4255.000,2.85,
4254.000,2.81,
4253.000,2.77,
4252.000,2.74,
4251.000,2.7,
4250.000,2.67,
4249.000,2.64,
4248.000,2.61,
4247.000,2.58,
4246.000,2.55,
4245.000,2.52,
4244.000,2.5,
4243.000,2.48,
4242.000,2.45,
4241.000,2.43,
4240.000,2.41,
4239.000,2.4,
4238.000,2.38,
4237.000,2.37,
4236.000,2.35,
4235.000,2.34,
4234.000,2.32,
4233.000,2.31,
4232.000,2.3,
4231.000,2.29,
4230.000,2.28,
4229.000,2.27,
4228.000,2.26,
4227.000,2.26,
4226.000,2.25,
4225.000,2.25,
4224.000,2.25,
4223.000,2.24,
4222.000,2.24,
4221.000,2.24,
4220.000,2.24,
4219.000,2.24,
4218.000,2.24,
4217.000,2.25,
4216.000,2.25,
4215.000,2.25,
4214.000,2.26,
4213.000,2.26,
4212.000,2.27,
4211.000,2.28,
4210.000,2.28,
4209.000,2.29,
4208.000,2.31,
4207.000,2.32,
4206.000,2.34,
4205.000,2.35,
4204.000,2.37,
4203.000,2.38,
4202.000,2.4,
4201.000,2.42,
4200.000,2.44,
4199.000,2.46,
4198.000,2.49,
4197.000,2.51,
4196.000,2.54,
4195.000,2.56,
4194.000,2.59,
4193.000,2.62,
4192.000,2.65,
4191.000,2.69,
4190.000,2.72,
4189.000,2.76,
4188.000,2.8,
4187.000,2.84,
4186.000,2.88,
4185.000,2.92,
4184.000,2.97,
4183.000,3.01,
4182.000,3.07,
4181.000,3.12,
4180.000,3.17,
4179.000,3.23,
4178.000,3.29,
4177.000,3.36,
4176.000,3.43,
4175.000,3.5,
4174.000,3.57,
4173.000,3.65,
4172.000,3.73,
4171.000,3.82,
4170.000,3.91,
4169.000,4,
4168.000,4.1,
4167.000,4.2,
4166.000,4.31,
4165.000,4.43,
4164.000,4.55,
4163.000,4.68,
4162.000,4.81,
4161.000,4.95,
4160.000,5.1,
4159.000,5.26,
4158.000,5.42,
4157.000,5.59,
4156.000,5.77,
4155.000,5.96,
4154.000,6.16,
4153.000,6.36,
4152.000,6.58,
4151.000,6.81,
4150.000,7.05,
4149.000,7.3,
4148.000,7.56,
4147.000,7.83,
4146.000,8.12,
4145.000,8.42,
4144.000,8.72,
4143.000,9.04,
4142.000,9.38,
4141.000,9.72,
4140.000,10.07,
4139.000,10.44,
4138.000,10.82,
4137.000,11.2,
4136.000,11.59,
4135.000,11.98,
4134.000,12.38,
4133.000,12.78,
4132.000,13.18,
4131.000,13.57,
4130.000,13.95,
4129.000,14.32,
4128.000,14.68,
4127.000,15.02,
4126.000,15.35,
4125.000,15.66,
4124.000,15.95,
4123.000,16.22,
4122.000,16.46,
4121.000,16.66,
4120.000,16.84,
4119.000,16.98,
4118.000,17.08,
4117.000,17.14,
4116.000,17.17,
4115.000,17.15,
4114.000,17.1,
4113.000,17.01,
4112.000,16.88,
4111.000,16.72,
4110.000,16.53,
4109.000,16.3,
4108.000,16.05,
4107.000,15.77,
4106.000,15.48,
4105.000,15.16,
4104.000,14.83,
4103.000,14.49,
4102.000,14.13,
4101.000,13.76,
4100.000,13.39,
4099.000,13.02,
4098.000,12.64,
4097.000,12.26,
4096.000,11.87,
4095.000,11.49,
4094.000,11.12,
4093.000,10.75,
4092.000,10.38,
4091.000,10.03,
4090.000,9.68,
4089.000,9.34,
4088.000,9,
4087.000,8.68,
4086.000,8.37,
4085.000,8.07,
4084.000,7.78,
4083.000,7.51,
4082.000,7.24,
4081.000,6.98,
4080.000,6.74,
4079.000,6.5,
4078.000,6.28,
4077.000,6.06,
4076.000,5.86,
4075.000,5.66,
4074.000,5.47,
4073.000,5.29,
4072.000,5.12,
4071.000,4.95,
4070.000,4.79,
4069.000,4.64,
4068.000,4.5,
4067.000,4.37,
4066.000,4.24,
4065.000,4.11,
4064.000,3.99,
4063.000,3.88,
4062.000,3.78,
4061.000,3.67,
4060.000,3.58,
4059.000,3.48,
4058.000,3.4,
4057.000,3.32,
4056.000,3.24,
4055.000,3.16,
4054.000,3.09,
4053.000,3.02,
4052.000,2.95,
4051.000,2.89,
4050.000,2.83,
4049.000,2.77,
4048.000,2.72,
4047.000,2.67,
4046.000,2.62,
4045.000,2.58,
4044.000,2.53,
4043.000,2.49,
4042.000,2.45,
4041.000,2.41,
4040.000,2.38,
4039.000,2.34,
4038.000,2.31,
4037.000,2.28,
4036.000,2.25,
4035.000,2.22,
4034.000,2.2,
4033.000,2.17,
4032.000,2.14,
4031.000,2.12,
4030.000,2.1,
4029.000,2.08,
4028.000,2.06,
4027.000,2.04,
4026.000,2.02,
4025.000,2.01,
4024.000,1.99,
4023.000,1.98,
4022.000,1.96,
4021.000,1.95,
4020.000,1.94,
4019.000,1.92,
4018.000,1.91,
4017.000,1.9,
4016.000,1.89,
4015.000,1.89,
4014.000,1.88,
4013.000,1.88,
4012.000,1.87,
4011.000,1.87,
4010.000,1.86,
4009.000,1.86,
4008.000,1.86,
4007.000,1.86,
4006.000,1.86,
4005.000,1.86,
4004.000,1.86,
4003.000,1.86,
4002.000,1.86,
4001.000,1.87,
4000.000,1.87,
3999.000,1.88,
3998.000,1.88,
3997.000,1.89,
3996.000,1.89,
3995.000,1.9,
3994.000,1.91,
3993.000,1.92,
3992.000,1.93,
3991.000,1.94,
3990.000,1.95,
3989.000,1.97,
3988.000,1.98,
3987.000,2,
3986.000,2.01,
3985.000,2.03,
3984.000,2.05,
3983.000,2.06,
3982.000,2.08,
3981.000,2.11,
3980.000,2.13,
3979.000,2.15,
3978.000,2.18,
3977.000,2.21,
3976.000,2.23,
3975.000,2.26,
3974.000,2.29,
3973.000,2.32,
3972.000,2.36,
3971.000,2.4,
3970.000,2.43,
3969.000,2.47,
3968.000,2.52,
3967.000,2.56,
3966.000,2.6,
3965.000,2.65,
3964.000,2.7,
3963.000,2.75,
3962.000,2.81,
3961.000,2.87,
3960.000,2.93,
3959.000,2.99,
3958.000,3.06,
3957.000,3.13,
3956.000,3.2,
3955.000,3.28,
3954.000,3.35,
3953.000,3.44,
3952.000,3.53,
3951.000,3.62,
3950.000,3.72,
3949.000,3.82,
3948.000,3.93,
3947.000,4.04,
3946.000,4.16,
3945.000,4.29,
3944.000,4.42,
3943.000,4.57,
3942.000,4.72,
3941.000,4.87,
3940.000,5.04,
3939.000,5.22,
3938.000,5.4,
3937.000,5.6,
3936.000,5.81,
3935.000,6.03,
3934.000,6.26,
3933.000,6.5,
3932.000,6.76,
3931.000,7.03,
3930.000,7.31,
3929.000,7.61,
3928.000,7.92,
3927.000,8.24,
3926.000,8.59,
3925.000,8.95,
3924.000,9.32,
3923.000,9.71,
3922.000,10.11,
3921.000,10.52,
3920.000,10.95,
3919.000,11.39,
3918.000,11.84,
3917.000,12.3,
3916.000,12.76,
3915.000,13.22,
3914.000,13.68,
3913.000,14.12,
3912.000,14.55,
3911.000,14.96,
3910.000,15.35,
3909.000,15.71,
3908.000,16.03,
3907.000,16.32,
3906.000,16.57,
3905.000,16.78,
3904.000,16.96,
3903.000,17.11,
3902.000,17.21,
3901.000,17.27,
3900.000,17.28,
3899.000,17.24,
3898.000,17.14,
3897.000,16.99,
3896.000,16.79,
3895.000,16.54,
3894.000,16.25,
3893.000,15.92,
3892.000,15.56,
3891.000,15.18,
3890.000,14.8,
3889.000,14.42,
3888.000,14.03,
3887.000,13.62,
3886.000,13.18,
3885.000,12.73,
3884.000,12.3,
3883.000,11.88,
3882.000,11.47,
3881.000,11.04,
3880.000,10.61,
3879.000,10.19,
3878.000,9.8,
3877.000,9.43,
3876.000,9.08,
3875.000,8.73,
3874.000,8.38,
3873.000,8.06,
3872.000,7.74,
3871.000,7.44,
3870.000,7.13,
3869.000,6.82,
3868.000,6.54,
3867.000,6.28,
3866.000,6.04,
3865.000,5.8,
3864.000,5.57,
3863.000,5.35,
3862.000,5.14,
3861.000,4.94,
3860.000,4.76,
3859.000,4.59,
3858.000,4.43,
3857.000,4.29,
3856.000,4.16,
3855.000,4.04,
3854.000,3.9,
3853.000,3.77,
3852.000,3.63,
3851.000,3.5,
3850.000,3.39,
3849.000,3.28,
3848.000,3.18,
3847.000,3.09,
3846.000,3.01,
3845.000,2.93,
3844.000,2.85,
3843.000,2.78,
3842.000,2.71,
3841.000,2.64,
3840.000,2.58,
3839.000,2.52,
3838.000,2.46,
3837.000,2.41,
3836.000,2.35,
3835.000,2.3,
3834.000,2.26,
3833.000,2.21,
3832.000,2.17,
3831.000,2.12,
3830.000,2.08,
3829.000,2.05,
3828.000,2.01,
3827.000,1.98,
3826.000,1.95,
3825.000,1.92,
3824.000,1.89,
3823.000,1.86,
3822.000,1.84,
3821.000,1.81,
3820.000,1.79,
3819.000,1.77,
3818.000,1.74,
3817.000,1.72,
3816.000,1.7,
3815.000,1.69,
3814.000,1.67,
3813.000,1.66,
3812.000,1.64,
3811.000,1.63,
3810.000,1.61,
3809.000,1.6,
3808.000,1.58,
3807.000,1.57,
3806.000,1.56,
3805.000,1.55,
3804.000,1.55,
3803.000,1.54,
3802.000,1.53,
3801.000,1.52,
3800.000,1.51,
3799.000,1.51,
3798.000,1.5,
3797.000,1.5,
3796.000,1.49,
3795.000,1.49,
3794.000,1.49,
3793.000,1.48,
3792.000,1.48,
3791.000,1.48,
3790.000,1.48,
3789.000,1.48,
3788.000,1.49,
3787.000,1.49,
3786.000,1.49,
3785.000,1.49,
3784.000,1.49,
3783.000,1.5,
3782.000,1.5,
3781.000,1.51,
3780.000,1.51,
3779.000,1.52,
3778.000,1.53,
3777.000,1.54,
3776.000,1.55,
3775.000,1.56,
3774.000,1.57,
3773.000,1.58,
3772.000,1.59,
3771.000,1.6,
3770.000,1.61,
3769.000,1.63,
3768.000,1.64,
3767.000,1.66,
3766.000,1.68,
3765.000,1.69,
3764.000,1.71,
3763.000,1.73,
3762.000,1.76,
3761.000,1.78,
3760.000,1.8,
3759.000,1.83,
3758.000,1.85,
3757.000,1.88,
3756.000,1.91,
3755.000,1.94,
3754.000,1.97,
3753.000,2.01,
3752.000,2.05,
3751.000,2.09,
3750.000,2.14,
3749.000,2.18,
3748.000,2.23,
3747.000,2.28,
3746.000,2.33,
3745.000,2.38,
3744.000,2.44,
3743.000,2.51,
3742.000,2.57,
3741.000,2.64,
3740.000,2.7,
3739.000,2.76,
3738.000,2.83,
3737.000,2.91,
3736.000,2.99,
3735.000,3.09,
3734.000,3.19,
3733.000,3.29,
3732.000,3.4,
3731.000,3.52,
3730.000,3.65,
3729.000,3.78,
3728.000,3.91,
3727.000,4.06,
3726.000,4.21,
3725.000,4.38,
3724.000,4.55,
3723.000,4.74,
3722.000,4.94,
3721.000,5.16,
3720.000,5.39,
3719.000,5.64,
3718.000,5.9,
3717.000,6.18,
3716.000,6.47,
3715.000,6.78,
3714.000,7.11,
3713.000,7.46,
3712.000,7.85,
3711.000,8.27,
3710.000,8.7,
3709.000,9.15,
3708.000,9.6,
3707.000,10.06,
3706.000,10.52,
3705.000,10.99,
3704.000,11.45,
3703.000,11.92,
3702.000,12.38,
3701.000,12.83,
3700.000,13.27,
3699.000,13.67,
3698.000,14.04,
3697.000,14.37,
3696.000,14.65,
3695.000,14.88,
3694.000,15.06,
3693.000,15.2,
3692.000,15.3,
3691.000,15.36,
3690.000,15.38,
3689.000,15.38,
3688.000,15.35,
3687.000,15.3,
3686.000,15.22,
3685.000,15.09,
3684.000,14.89,
3683.000,14.63,
3682.000,14.32,
3681.000,13.99,
3680.000,13.63,
3679.000,13.25,
3678.000,12.85,
3677.000,12.44,
3676.000,11.99,
3675.000,11.52,
3674.000,11.08,
3673.000,10.67,
3672.000,10.27,
3671.000,9.85,
3670.000,9.41,
3669.000,8.97,
3668.000,8.56,
3667.000,8.18,
3666.000,7.81,
3665.000,7.47,
3664.000,7.13,
3663.000,6.82,
3662.000,6.51,
3661.000,6.22,
3660.000,5.95,
3659.000,5.69,
3658.000,5.44,
3657.000,5.2,
3656.000,4.97,
3655.000,4.75,
3654.000,4.55,
3653.000,4.37,
3652.000,4.21,
3651.000,4.04,
3650.000,3.88,
3649.000,3.73,
3648.000,3.57,
3647.000,3.43,
3646.000,3.29,
3645.000,3.17,
3644.000,3.07,
3643.000,2.97,
3642.000,2.87,
3641.000,2.78,
3640.000,2.7,
3639.000,2.61,
3638.000,2.53,
3637.000,2.46,
3636.000,2.39,
3635.000,2.32,
3634.000,2.26,
3633.000,2.2,
3632.000,2.15,
3631.000,2.09,
3630.000,2.04,
3629.000,2,
3628.000,1.95,
3627.000,1.9,
3626.000,1.86,
3625.000,1.82,
3624.000,1.79,
3623.000,1.75,
3622.000,1.71,
3621.000,1.68,
3620.000,1.65,
3619.000,1.62,
3618.000,1.59,
3617.000,1.57,
3616.000,1.54,
3615.000,1.52,
3614.000,1.5,
3613.000,1.48,
3612.000,1.46,
3611.000,1.44,
3610.000,1.42,
3609.000,1.41,
3608.000,1.39,
3607.000,1.38,
3606.000,1.37,
3605.000,1.35,
3604.000,1.34,
3603.000,1.32,
3602.000,1.31,
3601.000,1.3,
3600.000,1.29,
3599.000,1.28,
3598.000,1.27,
3597.000,1.26,
3596.000,1.25,
3595.000,1.24,
3594.000,1.23,
3593.000,1.22,
3592.000,1.21,
3591.000,1.2,
3590.000,1.2,
3589.000,1.2,
3588.000,1.19,
3587.000,1.19,
3586.000,1.19,
3585.000,1.19,
3584.000,1.19,
3583.000,1.19,
3582.000,1.19,
3581.000,1.19,
3580.000,1.19,
3579.000,1.19,
3578.000,1.2,
3577.000,1.2,
3576.000,1.2,
3575.000,1.2,
3574.000,1.2,
3573.000,1.2,
3572.000,1.2,
3571.000,1.2,
3570.000,1.2,
3569.000,1.2,
3568.000,1.2,
3567.000,1.2,
3566.000,1.2,
3565.000,1.2,
3564.000,1.2,
3563.000,1.2,
3562.000,1.21,
3561.000,1.21,
3560.000,1.22,
3559.000,1.22,
3558.000,1.23,
3557.000,1.24,
3556.000,1.25,
3555.000,1.26,
3554.000,1.27,
3553.000,1.28,
3552.000,1.29,
3551.000,1.3,
3550.000,1.32,
3549.000,1.33,
3548.000,1.35,
3547.000,1.36,
3546.000,1.38,
3545.000,1.4,
3544.000,1.41,
3543.000,1.43,
3542.000,1.46,
3541.000,1.48,
3540.000,1.5,
3539.000,1.52,
3538.000,1.55,
3537.000,1.58,
3536.000,1.61,
3535.000,1.64,
3534.000,1.67,
3533.000,1.7,
3532.000,1.74,
3531.000,1.77,
3530.000,1.81,
3529.000,1.85,
3528.000,1.89,
3527.000,1.94,
3526.000,1.99,
3525.000,2.04,
3524.000,2.09,
3523.000,2.15,
3522.000,2.21,
3521.000,2.27,
3520.000,2.33,
3519.000,2.4,
3518.000,2.47,
3517.000,2.55,
3516.000,2.63,
3515.000,2.72,
3514.000,2.81,
3513.000,2.9,
3512.000,3,
3511.000,3.11,
3510.000,3.23,
3509.000,3.35,
3508.000,3.48,
3507.000,3.61,
3506.000,3.76,
3505.000,3.91,
3504.000,4.07,
3503.000,4.25,
3502.000,4.43,
3501.000,4.62,
3500.000,4.83,
3499.000,5.04,
3498.000,5.26,
3497.000,5.5,
3496.000,5.75,
3495.000,6.01,
3494.000,6.28,
3493.000,6.56,
3492.000,6.84,
3491.000,7.14,
3490.000,7.44,
3489.000,7.74,
3488.000,8.05,
3487.000,8.36,
3486.000,8.67,
3485.000,8.97,
3484.000,9.26,
3483.000,9.55,
3482.000,9.82,
3481.000,10.07,
3480.000,10.31,
3479.000,10.52,
3478.000,10.7,
3477.000,10.86,
3476.000,10.98,
3475.000,11.07,
3474.000,11.12,
3473.000,11.14,
3472.000,11.12,
3471.000,11.07,
3470.000,10.98,
3469.000,10.87,
3468.000,10.72,
3467.000,10.54,
3466.000,10.33,
3465.000,10.1,
3464.000,9.85,
3463.000,9.58,
3462.000,9.3,
3461.000,9.01,
3460.000,8.71,
3459.000,8.41,
3458.000,8.1,
3457.000,7.79,
3456.000,7.49,
3455.000,7.19,
3454.000,6.89,
3453.000,6.6,
3452.000,6.31,
3451.000,6.04,
3450.000,5.77,
3449.000,5.52,
3448.000,5.27,
3447.000,5.03,
3446.000,4.8,
3445.000,4.58,
3444.000,4.37,
3443.000,4.18,
3442.000,3.99,
3441.000,3.81,
3440.000,3.65,
3439.000,3.49,
3438.000,3.34,
3437.000,3.2,
3436.000,3.06,
3435.000,2.94,
3434.000,2.82,
3433.000,2.71,
3432.000,2.6,
3431.000,2.5,
3430.000,2.41,
3429.000,2.32,
3428.000,2.24,
3427.000,2.16,
3426.000,2.08,
3425.000,2.01,
3424.000,1.94,
3423.000,1.88,
3422.000,1.82,
3421.000,1.77,
3420.000,1.72,
3419.000,1.67,
3418.000,1.63,
3417.000,1.58,
3416.000,1.54,
3415.000,1.51,
3414.000,1.47,
3413.000,1.44,
3412.000,1.41,
3411.000,1.38,
3410.000,1.36,
3409.000,1.33,
3408.000,1.31,
3407.000,1.29,
3406.000,1.27,
3405.000,1.25,
3404.000,1.24,
3403.000,1.22,
3402.000,1.21,
3401.000,1.2,
3400.000,1.19,
3399.000,1.17,
3398.000,1.16,
3397.000,1.15,
3396.000,1.13,
3395.000,1.12,
3394.000,1.11,
3393.000,1.09,
3392.000,1.08,
3391.000,1.07,
3390.000,1.06,
3389.000,1.05,
3388.000,1.04,
3387.000,1.03,
3386.000,1.02,
3385.000,1.01,
3384.000,1,
3383.000,0.99,
3382.000,0.98,
3381.000,0.97,
3380.000,0.96,
3379.000,0.95,
3378.000,0.95,
3377.000,0.94,
3376.000,0.94,
3375.000,0.93,
3374.000,0.93,
3373.000,0.92,
3372.000,0.92,
3371.000,0.92,
3370.000,0.91,
3369.000,0.91,
3368.000,0.91,
3367.000,0.9,
3366.000,0.9,
3365.000,0.9,
3364.000,0.9,
3363.000,0.9,
3362.000,0.9,
3361.000,0.9,
3360.000,0.9,
3359.000,0.9,
3358.000,0.9,
3357.000,0.9,
3356.000,0.91,
3355.000,0.91,
3354.000,0.91,
3353.000,0.91,
3352.000,0.92,
3351.000,0.92,
3350.000,0.93,
3349.000,0.93,
3348.000,0.94,
3347.000,0.94,
3346.000,0.95,
3345.000,0.96,
3344.000,0.97,
3343.000,0.97,
3342.000,0.98,
3341.000,0.99,
3340.000,1,
3339.000,1.01,
3338.000,1.02,
3337.000,1.03,
3336.000,1.04,
3335.000,1.06,
3334.000,1.07,
3333.000,1.09,
3332.000,1.1,
3331.000,1.12,
3330.000,1.13,
3329.000,1.15,
3328.000,1.17,
3327.000,1.19,
3326.000,1.21,
3325.000,1.23,
3324.000,1.25,
3323.000,1.28,
3322.000,1.31,
3321.000,1.33,
3320.000,1.36,
3319.000,1.39,
3318.000,1.42,
3317.000,1.45,
3316.000,1.48,
3315.000,1.52,
3314.000,1.55,
3313.000,1.59,
3312.000,1.63,
3311.000,1.68,
3310.000,1.72,
3309.000,1.77,
3308.000,1.83,
3307.000,1.88,
3306.000,1.94,
3305.000,2,
3304.000,2.07,
3303.000,2.14,
3302.000,2.22,
3301.000,2.3,
3300.000,2.38,
3299.000,2.48,
3298.000,2.57,
3297.000,2.68,
3296.000,2.79,
3295.000,2.91,
3294.000,3.03,
3293.000,3.17,
3292.000,3.32,
3291.000,3.48,
3290.000,3.64,
3289.000,3.82,
3288.000,4.01,
3287.000,4.22,
3286.000,4.43,
3285.000,4.66,
3284.000,4.91,
3283.000,5.16,
3282.000,5.44,
3281.000,5.72,
3280.000,6.02,
3279.000,6.34,
3278.000,6.66,
3277.000,7,
3276.000,7.34,
3275.000,7.69,
3274.000,8.04,
3273.000,8.4,
3272.000,8.75,
3271.000,9.1,
3270.000,9.43,
3269.000,9.75,
3268.000,10.05,
3267.000,10.32,
3266.000,10.56,
3265.000,10.76,
3264.000,10.93,
3263.000,11.06,
3262.000,11.15,
3261.000,11.19,
3260.000,11.18,
3259.000,11.13,
3258.000,11.04,
3257.000,10.91,
3256.000,10.73,
3255.000,10.53,
3254.000,10.29,
3253.000,10.03,
3252.000,9.74,
3251.000,9.44,
3250.000,9.13,
3249.000,8.8,
3248.000,8.47,
3247.000,8.13,
3246.000,7.8,
3245.000,7.46,
3244.000,7.13,
3243.000,6.81,
3242.000,6.5,
3241.000,6.19,
3240.000,5.9,
3239.000,5.62,
3238.000,5.34,
3237.000,5.08,
3236.000,4.83,
3235.000,4.59,
3234.000,4.37,
3233.000,4.15,
3232.000,3.95,
3231.000,3.76,
3230.000,3.58,
3229.000,3.41,
3228.000,3.26,
3227.000,3.1,
3226.000,2.96,
3225.000,2.83,
3224.000,2.7,
3223.000,2.59,
3222.000,2.48,
3221.000,2.37,
3220.000,2.28,
3219.000,2.19,
3218.000,2.1,
3217.000,2.02,
3216.000,1.95,
3215.000,1.88,
3214.000,1.81,
3213.000,1.75,
3212.000,1.69,
3211.000,1.64,
3210.000,1.59,
3209.000,1.54,
3208.000,1.49,
3207.000,1.45,
3206.000,1.4,
3205.000,1.37,
3204.000,1.33,
3203.000,1.29,
3202.000,1.26,
3201.000,1.23,
3200.000,1.2,
3199.000,1.17,
3198.000,1.15,
3197.000,1.12,
3196.000,1.1,
3195.000,1.07,
3194.000,1.05,
3193.000,1.03,
3192.000,1.01,
3191.000,0.99,
3190.000,0.98,
3189.000,0.96,
3188.000,0.94,
3187.000,0.93,
3186.000,0.91,
3185.000,0.9,
3184.000,0.88,
3183.000,0.87,
3182.000,0.86,
3181.000,0.85,
3180.000,0.84,
3179.000,0.83,
3178.000,0.82,
3177.000,0.81,
3176.000,0.8,
3175.000,0.8,
3174.000,0.79,
3173.000,0.78,
3172.000,0.78,
3171.000,0.77,
3170.000,0.76,
3169.000,0.76,
3168.000,0.75,
3167.000,0.75,
3166.000,0.74,
3165.000,0.74,
3164.000,0.74,
3163.000,0.73,
3162.000,0.73,
3161.000,0.73,
3160.000,0.73,
3159.000,0.73,
3158.000,0.73,
3157.000,0.73,
3156.000,0.73,
3155.000,0.73,
3154.000,0.73,
3153.000,0.73,
3152.000,0.73,
3151.000,0.73,
3150.000,0.73,
3149.000,0.73,
3148.000,0.73,
3147.000,0.73,
3146.000,0.74,
3145.000,0.74,
3144.000,0.75,
3143.000,0.75,
3142.000,0.75,
3141.000,0.76,
3140.000,0.76,
3139.000,0.77,
3138.000,0.77,
3137.000,0.78,
3136.000,0.79,
3135.000,0.8,
3134.000,0.8,
3133.000,0.81,
3132.000,0.82,
3131.000,0.83,
3130.000,0.84,
3129.000,0.86,
3128.000,0.87,
3127.000,0.88,
3126.000,0.89,
3125.000,0.91,
3124.000,0.92,
3123.000,0.94,
3122.000,0.95,
3121.000,0.97,
3120.000,0.99,
3119.000,1.01,
3118.000,1.03,
3117.000,1.05,
3116.000,1.08,
3115.000,1.1,
3114.000,1.13,
3113.000,1.15,
3112.000,1.18,
3111.000,1.22,
3110.000,1.25,
3109.000,1.29,
3108.000,1.32,
3107.000,1.37,
3106.000,1.41,
3105.000,1.46,
3104.000,1.51,
3103.000,1.56,
3102.000,1.62,
3101.000,1.68,
3100.000,1.75,
3099.000,1.82,
3098.000,1.9,
3097.000,1.98,
3096.000,2.07,
3095.000,2.17,
3094.000,2.27,
3093.000,2.38,
3092.000,2.5,
3091.000,2.63,
3090.000,2.77,
3089.000,2.93,
3088.000,3.1,
3087.000,3.28,
3086.000,3.47,
3085.000,3.68,
3084.000,3.91,
3083.000,4.15,
3082.000,4.41,
3081.000,4.69,
3080.000,4.98,
3079.000,5.3,
3078.000,5.62,
3077.000,5.96,
3076.000,6.31,
3075.000,6.66,
3074.000,7.01,
3073.000,7.35,
3072.000,7.69,
3071.000,8,
3070.000,8.29,
3069.000,8.55,
3068.000,8.77,
3067.000,8.94,
3066.000,9.06,
3065.000,9.13,
3064.000,9.15,
3063.000,9.11,
3062.000,9.02,
3061.000,8.88,
3060.000,8.7,
3059.000,8.48,
3058.000,8.23,
3057.000,7.95,
3056.000,7.65,
3055.000,7.33,
3054.000,7,
3053.000,6.67,
3052.000,6.34,
3051.000,6,
3050.000,5.68,
3049.000,5.36,
3048.000,5.04,
3047.000,4.74,
3046.000,4.45,
3045.000,4.18,
3044.000,3.91,
3043.000,3.66,
3042.000,3.42,
3041.000,3.2,
3040.000,3,
3039.000,2.81,
3038.000,2.63,
3037.000,2.47,
3036.000,2.32,
3035.000,2.18,
3034.000,2.05,
3033.000,1.93,
3032.000,1.83,
3031.000,1.73,
3030.000,1.64,
3029.000,1.56,
3028.000,1.48,
3027.000,1.41,
3026.000,1.35,
3025.000,1.29,
3024.000,1.23,
3023.000,1.18,
3022.000,1.13,
3021.000,1.08,
3020.000,1.04,
3019.000,1,
3018.000,0.96,
3017.000,0.93,
3016.000,0.9,
3015.000,0.86,
3014.000,0.83,
3013.000,0.81,
3012.000,0.78,
3011.000,0.76,
3010.000,0.74,
3009.000,0.72,
3008.000,0.7,
3007.000,0.68,
3006.000,0.67,
3005.000,0.65,
3004.000,0.64,
3003.000,0.62,
3002.000,0.61,
3001.000,0.6,
3000.000,0.59,
2999.000,0.58,
2998.000,0.57,
2997.000,0.56,
2996.000,0.56,
2995.000,0.55,
2994.000,0.54,
2993.000,0.54,
2992.000,0.54,
2991.000,0.53,
2990.000,0.53,
2989.000,0.53,
2988.000,0.53,
2987.000,0.54,
2986.000,0.54,
2985.000,0.54,
2984.000,0.54,
2983.000,0.55,
2982.000,0.55,
2981.000,0.55,
2980.000,0.56,
2979.000,0.56,
2978.000,0.55,
2977.000,0.55,
2976.000,0.54,
2975.000,0.52,
2974.000,0.5,
2973.000,0.48,
2972.000,0.45,
2971.000,0.41,
2970.000,0.37,
2969.000,0.33,
2968.000,0.29,
2967.000,0.25,
2966.000,0.22,
2965.000,0.19,
2964.000,0.16,
2963.000,0.14,
2962.000,0.11,
2961.000,0.1,
2960.000,0.08,
2959.000,0.07,
2958.000,0.06,
2957.000,0.05,
2956.000,0.05,
2955.000,0.04,
2954.000,0.04,
2953.000,0.04,
2952.000,0.03,
2951.000,0.03,
2950.000,0.03,
2949.000,0.02,
2948.000,0.02,
2947.000,0.02,
2946.000,0.02,
2945.000,0.01,
2944.000,0.01,
2943.000,0.01,
2942.000,0.01,
2941.000,0.01,
2940.000,0.01,
2939.000,0.01,
2938.000,0.01,
2937.000,0.01,
2936.000,0.01,
2935.000,0.01,
2934.000,0.01,
2933.000,0.01,
2932.000,0.01,
2931.000,0.02,
2930.000,0.02,
2929.000,0.02,
2928.000,0.03,
2927.000,0.03,
2926.000,0.03,
2925.000,0.04,
2924.000,0.04,
2923.000,0.05,
2922.000,0.06,
2921.000,0.07,
2920.000,0.08,
2919.000,0.09,
2918.000,0.11,
2917.000,0.12,
2916.000,0.14,
2915.000,0.15,
2914.000,0.17,
2913.000,0.18,
2912.000,0.19,
2911.000,0.2,
2910.000,0.21,
2909.000,0.21,
2908.000,0.22,
2907.000,0.22,
2906.000,0.23,
2905.000,0.23,
2904.000,0.24,
2903.000,0.24,
2902.000,0.25,
2901.000,0.25,
2900.000,0.26,
2899.000,0.26,
2898.000,0.26,
2897.000,0.27,
2896.000,0.27,
2895.000,0.27,
2894.000,0.27,
2893.000,0.27,
2892.000,0.28,
2891.000,0.28,
2890.000,0.28,
2889.000,0.28,
2888.000,0.28,
2887.000,0.29,
2886.000,0.29,
2885.000,0.29,
2884.000,0.29,
2883.000,0.29,
2882.000,0.29,
2881.000,0.28,
2880.000,0.28,
2879.000,0.27,
2878.000,0.27,
2877.000,0.26,
2876.000,0.25,
2875.000,0.24,
2874.000,0.22,
2873.000,0.21,
2872.000,0.19,
2871.000,0.17,
2870.000,0.16,
2869.000,0.14,
2868.000,0.12,
2867.000,0.11,
2866.000,0.09,
2865.000,0.08,
2864.000,0.08,
2863.000,0.07,
2862.000,0.07,
2861.000,0.07,
2860.000,0.08,
2859.000,0.09,
2858.000,0.1,
2857.000,0.11,
2856.000,0.13,
2855.000,0.14,
2854.000,0.16,
2853.000,0.19,
2852.000,0.21,
2851.000,0.24,
2850.000,0.26,
2849.000,0.28,
2848.000,0.3,
2847.000,0.32,
2846.000,0.33,
2845.000,0.35,
2844.000,0.36,
2843.000,0.37,
2842.000,0.39,
2841.000,0.4,
2840.000,0.41,
2839.000,0.42,
2838.000,0.44,
2837.000,0.45,
2836.000,0.46,
2835.000,0.48,
2834.000,0.49,
2833.000,0.5,
2832.000,0.52,
2831.000,0.53,
2830.000,0.55,
2829.000,0.56,
2828.000,0.58,
2827.000,0.59,
2826.000,0.61,
2825.000,0.63,
2824.000,0.65,
2823.000,0.68,
2822.000,0.7,
2821.000,0.73,
2820.000,0.77,
2819.000,0.8,
2818.000,0.84,
2817.000,0.88,
2816.000,0.93,
2815.000,0.98,
2814.000,1.04,
2813.000,1.11,
2812.000,1.18,
2811.000,1.25,
2810.000,1.34,
2809.000,1.43,
2808.000,1.53,
2807.000,1.65,
2806.000,1.77,
2805.000,1.91,
2804.000,2.05,
2803.000,2.21,
2802.000,2.38,
2801.000,2.55,
2800.000,2.73,
2799.000,2.92,
2798.000,3.11,
2797.000,3.31,
2796.000,3.52,
2795.000,3.75,
2794.000,4,
2793.000,4.27,
2792.000,4.57,
2791.000,4.89,
2790.000,5.21,
2789.000,5.53,
2788.000,5.83,
2787.000,6.1,
2786.000,6.33,
2785.000,6.51,
2784.000,6.63,
2783.000,6.69,
2782.000,6.68,
2781.000,6.62,
2780.000,6.5,
2779.000,6.34,
2778.000,6.14,
2777.000,5.91,
2776.000,5.67,
2775.000,5.41,
2774.000,5.14,
2773.000,4.87,
2772.000,4.6,
2771.000,4.33,
2770.000,4.07,
2769.000,3.81,
2768.000,3.57,
2767.000,3.33,
2766.000,3.11,
2765.000,2.91,
2764.000,2.72,
2763.000,2.55,
2762.000,2.39,
2761.000,2.24,
2760.000,2.11,
2759.000,1.98,
2758.000,1.87,
2757.000,1.77,
2756.000,1.67,
2755.000,1.58,
2754.000,1.49,
2753.000,1.42,
2752.000,1.34,
2751.000,1.27,
2750.000,1.21,
2749.000,1.15,
2748.000,1.1,
2747.000,1.05,
2746.000,1,
2745.000,0.96,
2744.000,0.92,
2743.000,0.89,
2742.000,0.85,
2741.000,0.82,
2740.000,0.79,
2739.000,0.77,
2738.000,0.74,
2737.000,0.72,
2736.000,0.7,
2735.000,0.67,
2734.000,0.66,
2733.000,0.64,
2732.000,0.62,
2731.000,0.61,
2730.000,0.59,
2729.000,0.58,
2728.000,0.56,
2727.000,0.55,
2726.000,0.54,
2725.000,0.53,
2724.000,0.51,
2723.000,0.5,
2722.000,0.5,
2721.000,0.49,
2720.000,0.48,
2719.000,0.47,
2718.000,0.46,
2717.000,0.46,
2716.000,0.45,
2715.000,0.45,
2714.000,0.44,
2713.000,0.43,
2712.000,0.43,
2711.000,0.42,
2710.000,0.42,
2709.000,0.41,
2708.000,0.41,
2707.000,0.41,
2706.000,0.4,
2705.000,0.4,
2704.000,0.4,
2703.000,0.39,
2702.000,0.39,
2701.000,0.39,
2700.000,0.39,
2699.000,0.39,
2698.000,0.38,
2697.000,0.38,
2696.000,0.38,
2695.000,0.38,
2694.000,0.38,
2693.000,0.38,
2692.000,0.38,
2691.000,0.37,
2690.000,0.37,
2689.000,0.37,
2688.000,0.37,
2687.000,0.38,
2686.000,0.38,
2685.000,0.38,
2684.000,0.38,
2683.000,0.38,
2682.000,0.38,
2681.000,0.38,
2680.000,0.38,
2679.000,0.38,
2678.000,0.38,
2677.000,0.38,
2676.000,0.38,
2675.000,0.39,
2674.000,0.39,
2673.000,0.39,
2672.000,0.39,
2671.000,0.39,
2670.000,0.4,
2669.000,0.4,
2668.000,0.4,
2667.000,0.4,
2666.000,0.41,
2665.000,0.41,
2664.000,0.42,
2663.000,0.42,
2662.000,0.43,
2661.000,0.44,
2660.000,0.44,
2659.000,0.45,
2658.000,0.46,
2657.000,0.46,
2656.000,0.47,
2655.000,0.48,
2654.000,0.49,
2653.000,0.5,
2652.000,0.5,
2651.000,0.51,
2650.000,0.53,
2649.000,0.54,
2648.000,0.55,
2647.000,0.56,
2646.000,0.57,
2645.000,0.58,
2644.000,0.6,
2643.000,0.61,
2642.000,0.63,
2641.000,0.65,
2640.000,0.67,
2639.000,0.69,
2638.000,0.71,
2637.000,0.73,
2636.000,0.76,
2635.000,0.79,
2634.000,0.82,
2633.000,0.85,
2632.000,0.88,
2631.000,0.91,
2630.000,0.95,
2629.000,0.99,
2628.000,1.04,
2627.000,1.09,
2626.000,1.14,
2625.000,1.19,
2624.000,1.25,
2623.000,1.32,
2622.000,1.39,
2621.000,1.46,
2620.000,1.54,
2619.000,1.62,
2618.000,1.71,
2617.000,1.81,
2616.000,1.92,
2615.000,2.04,
2614.000,2.16,
2613.000,2.29,
2612.000,2.44,
2611.000,2.59,
2610.000,2.76,
2609.000,2.95,
2608.000,3.15,
2607.000,3.37,
2606.000,3.61,
2605.000,3.88,
2604.000,4.17,
2603.000,4.48,
2602.000,4.81,
2601.000,5.16,
2600.000,5.51,
2599.000,5.87,
2598.000,6.22,
2597.000,6.56,
2596.000,6.88,
2595.000,7.16,
2594.000,7.39,
2593.000,7.57,
2592.000,7.7,
2591.000,7.76,
2590.000,7.76,
2589.000,7.7,
2588.000,7.58,
2587.000,7.42,
2586.000,7.22,
2585.000,6.98,
2584.000,6.71,
2583.000,6.43,
2582.000,6.13,
2581.000,5.82,
2580.000,5.5,
2579.000,5.19,
2578.000,4.88,
2577.000,4.57,
2576.000,4.28,
2575.000,4,
2574.000,3.74,
2573.000,3.49,
2572.000,3.26,
2571.000,3.04,
2570.000,2.84,
2569.000,2.65,
2568.000,2.48,
2567.000,2.32,
2566.000,2.17,
2565.000,2.03,
2564.000,1.91,
2563.000,1.79,
2562.000,1.69,
2561.000,1.59,
2560.000,1.5,
2559.000,1.41,
2558.000,1.33,
2557.000,1.26,
2556.000,1.2,
2555.000,1.13,
2554.000,1.08,
2553.000,1.03,
2552.000,0.98,
2551.000,0.93,
2550.000,0.89,
2549.000,0.85,
2548.000,0.82,
2547.000,0.78,
2546.000,0.75,
2545.000,0.72,
2544.000,0.69,
2543.000,0.67,
2542.000,0.65,
2541.000,0.63,
2540.000,0.6,
2539.000,0.59,
2538.000,0.57,
2537.000,0.55,
2536.000,0.54,
2535.000,0.52,
2534.000,0.51,
2533.000,0.5,
2532.000,0.48,
2531.000,0.47,
2530.000,0.46,
2529.000,0.45,
2528.000,0.44,
2527.000,0.43,
2526.000,0.42,
2525.000,0.41,
2524.000,0.4,
2523.000,0.39,
2522.000,0.39,
2521.000,0.38,
2520.000,0.37,
2519.000,0.37,
2518.000,0.36,
2517.000,0.36,
2516.000,0.35,
2515.000,0.35,
2514.000,0.34,
2513.000,0.33,
2512.000,0.33,
2511.000,0.33,
2510.000,0.32,
2509.000,0.32,
2508.000,0.31,
2507.000,0.31,
2506.000,0.31,
2505.000,0.3,
2504.000,0.3,
2503.000,0.3,
2502.000,0.29,
2501.000,0.29,
2500.000,0.29,
2499.000,0.29,
2498.000,0.29,
2497.000,0.29,
2496.000,0.28,
2495.000,0.28,
2494.000,0.28,
2493.000,0.28,
2492.000,0.28,
2491.000,0.28,
2490.000,0.28,
2489.000,0.28,
2488.000,0.27,
2487.000,0.27,
2486.000,0.27,
2485.000,0.27,
2484.000,0.27,
2483.000,0.27,
2482.000,0.27,
2481.000,0.27,
2480.000,0.27,
2479.000,0.27,
2478.000,0.27,
2477.000,0.27,
2476.000,0.28,
2475.000,0.28,
2474.000,0.28,
2473.000,0.28,
2472.000,0.28,
2471.000,0.28,
2470.000,0.28,
2469.000,0.28,
2468.000,0.28,
2467.000,0.28,
2466.000,0.29,
2465.000,0.29,
2464.000,0.29,
2463.000,0.3,
2462.000,0.3,
2461.000,0.3,
2460.000,0.3,
2459.000,0.31,
2458.000,0.31,
2457.000,0.31,
2456.000,0.32,
2455.000,0.32,
2454.000,0.33,
2453.000,0.33,
2452.000,0.33,
2451.000,0.34,
2450.000,0.34,
2449.000,0.35,
2448.000,0.35,
2447.000,0.36,
2446.000,0.37,
2445.000,0.37,
2444.000,0.38,
2443.000,0.39,
2442.000,0.39,
2441.000,0.4,
2440.000,0.41,
2439.000,0.42,
2438.000,0.44,
2437.000,0.45,
2436.000,0.46,
2435.000,0.47,
2434.000,0.48,
2433.000,0.49,
2432.000,0.51,
2431.000,0.52,
2430.000,0.54,
2429.000,0.56,
2428.000,0.57,
2427.000,0.59,
2426.000,0.61,
2425.000,0.64,
2424.000,0.66,
2423.000,0.68,
2422.000,0.71,
2421.000,0.74,
2420.000,0.77,
2419.000,0.8,
2418.000,0.83,
2417.000,0.87,
2416.000,0.91,
2415.000,0.96,
2414.000,1.01,
2413.000,1.06,
2412.000,1.12,
2411.000,1.19,
2410.000,1.26,
2409.000,1.34,
2408.000,1.43,
2407.000,1.52,
2406.000,1.63,
2405.000,1.75,
2404.000,1.88,
2403.000,2.02,
2402.000,2.18,
2401.000,2.36,
2400.000,2.55,
2399.000,2.76,
2398.000,2.98,
2397.000,3.23,
2396.000,3.5,
2395.000,3.78,
2394.000,4.07,
2393.000,4.38,
2392.000,4.69,
2391.000,5.01,
2390.000,5.32,
2389.000,5.62,
2388.000,5.89,
2387.000,6.13,
2386.000,6.33,
2385.000,6.48,
2384.000,6.59,
2383.000,6.64,
2382.000,6.64,
2381.000,6.59,
2380.000,6.49,
2379.000,6.35,
2378.000,6.16,
2377.000,5.93,
2376.000,5.68,
2375.000,5.4,
2374.000,5.11,
2373.000,4.81,
2372.000,4.51,
2371.000,4.22,
2370.000,3.93,
2369.000,3.67,
2368.000,3.42,
2367.000,3.19,
2366.000,2.99,
2365.000,2.81,
2364.000,2.66,
2363.000,2.52,
2362.000,2.4,
2361.000,2.3,
2360.000,2.2,
2359.000,2.11,
2358.000,2.01,
2357.000,1.92,
2356.000,1.82,
2355.000,1.72,
2354.000,1.63,
2353.000,1.54,
2352.000,1.46,
2351.000,1.39,
2350.000,1.33,
2349.000,1.27,
2348.000,1.21,
2347.000,1.16,
2346.000,1.11,
2345.000,1.06,
2344.000,1.01,
2343.000,0.97,
2342.000,0.93,
2341.000,0.9,
2340.000,0.87,
2339.000,0.83,
2338.000,0.8,
2337.000,0.76,
2336.000,0.73,
2335.000,0.69,
2334.000,0.7,
2333.000,0.59,
2332.000,0.42,
2331.000,0.44,
2330.000,0.41,
2329.000,0.41,
2328.000,0.39,
2327.000,0.38,
2326.000,0.37,
2325.000,0.36,
2324.000,0.35,
2323.000,0.34,
2322.000,0.34,
2321.000,0.33,
2320.000,0.33,
2319.000,0.31,
2318.000,0.33,
2317.000,0.38,
2316.000,0.36,
2315.000,0.36,
2314.000,0.34,
2313.000,0.34,
2312.000,0.33,
2311.000,0.32,
2310.000,0.31,
2309.000,0.31,
2308.000,0.31,
2307.000,0.3,
2306.000,0.3,
2305.000,0.29,
2304.000,0.28,
2303.000,0.28,
2302.000,0.27,
2301.000,0.26,
2300.000,0.26,
2299.000,0.25,
2298.000,0.25,
2297.000,0.25,
2296.000,0.24,
2295.000,0.24,
2294.000,0.23,
2293.000,0.23,
2292.000,0.22,
2291.000,0.22,
2290.000,0.22,
2289.000,0.22,
2288.000,0.22,
2287.000,0.22,
2286.000,0.21,
2285.000,0.21,
2284.000,0.21,
2283.000,0.21,
2282.000,0.21,
2281.000,0.2,
2280.000,0.2,
2279.000,0.2,
2278.000,0.2,
2277.000,0.2,
2276.000,0.2,
2275.000,0.2,
2274.000,0.2,
2273.000,0.2,
2272.000,0.2,
2271.000,0.2,
2270.000,0.19,
2269.000,0.19,
2268.000,0.19,
2267.000,0.19,
2266.000,0.19,
2265.000,0.19,
2264.000,0.2,
2263.000,0.2,
2262.000,0.2,
2261.000,0.2,
2260.000,0.2,
2259.000,0.2,
2258.000,0.2,
2257.000,0.21,
2256.000,0.21,
2255.000,0.21,
2254.000,0.21,
2253.000,0.21,
2252.000,0.21,
2251.000,0.22,
2250.000,0.22,
2249.000,0.22,
2248.000,0.22,
2247.000,0.22,
2246.000,0.23,
2245.000,0.23,
2244.000,0.23,
2243.000,0.23,
2242.000,0.24,
2241.000,0.24,
2240.000,0.25,
2239.000,0.25,
2238.000,0.25,
2237.000,0.26,
2236.000,0.26,
2235.000,0.26,
2234.000,0.27,
2233.000,0.27,
2232.000,0.28,
2231.000,0.29,
2230.000,0.29,
2229.000,0.3,
2228.000,0.31,
2227.000,0.31,
2226.000,0.32,
2225.000,0.33,
2224.000,0.34,
2223.000,0.35,
2222.000,0.35,
2221.000,0.37,
2220.000,0.38,
2219.000,0.39,
2218.000,0.4,
2217.000,0.42,
2216.000,0.43,
2215.000,0.45,
2214.000,0.46,
2213.000,0.48,
2212.000,0.5,
2211.000,0.52,
2210.000,0.54,
2209.000,0.56,
2208.000,0.59,
2207.000,0.61,
2206.000,0.64,
2205.000,0.67,
2204.000,0.71,
2203.000,0.75,
2202.000,0.79,
2201.000,0.83,
2200.000,0.88,
2199.000,0.93,
2198.000,0.99,
2197.000,1.06,
2196.000,1.13,
2195.000,1.22,
2194.000,1.31,
2193.000,1.41,
2192.000,1.52,
2191.000,1.64,
2190.000,1.78,
2189.000,1.92,
2188.000,2.08,
2187.000,2.26,
2186.000,2.44,
2185.000,2.64,
2184.000,2.84,
2183.000,3.05,
2182.000,3.26,
2181.000,3.47,
2180.000,3.67,
2179.000,3.85,
2178.000,4.01,
2177.000,4.16,
2176.000,4.29,
2175.000,4.41,
2174.000,4.52,
2173.000,4.62,
2172.000,4.69,
2171.000,4.74,
2170.000,4.76,
2169.000,4.74,
2168.000,4.68,
2167.000,4.58,
2166.000,4.45,
2165.000,4.28,
2164.000,4.09,
2163.000,3.88,
2162.000,3.65,
2161.000,3.42,
2160.000,3.19,
2159.000,2.97,
2158.000,2.75,
2157.000,2.54,
2156.000,2.34,
2155.000,2.15,
2154.000,1.98,
2153.000,1.82,
2152.000,1.67,
2151.000,1.54,
2150.000,1.42,
2149.000,1.31,
2148.000,1.21,
2147.000,1.12,
2146.000,1.04,
2145.000,0.97,
2144.000,0.9,
2143.000,0.85,
2142.000,0.79,
2141.000,0.74,
2140.000,0.7,
2139.000,0.66,
2138.000,0.62,
2137.000,0.59,
2136.000,0.56,
2135.000,0.53,
2134.000,0.51,
2133.000,0.48,
2132.000,0.46,
2131.000,0.44,
2130.000,0.42,
2129.000,0.41,
2128.000,0.39,
2127.000,0.38,
2126.000,0.36,
2125.000,0.35,
2124.000,0.34,
2123.000,0.33,
2122.000,0.32,
2121.000,0.31,
2120.000,0.3,
2119.000,0.29,
2118.000,0.28,
2117.000,0.27,
2116.000,0.26,
2115.000,0.25,
2114.000,0.25,
2113.000,0.24,
2112.000,0.23,
2111.000,0.23,
2110.000,0.22,
2109.000,0.22,
2108.000,0.21,
2107.000,0.21,
2106.000,0.2,
2105.000,0.2,
2104.000,0.19,
2103.000,0.19,
2102.000,0.19,
2101.000,0.18,
2100.000,0.18,
2099.000,0.18,
2098.000,0.17,
2097.000,0.17,
2096.000,0.17,
2095.000,0.17,
2094.000,0.17,
2093.000,0.16,
2092.000,0.16,
2091.000,0.16,
2090.000,0.16,
2089.000,0.16,
2088.000,0.16,
2087.000,0.15,
2086.000,0.15,
2085.000,0.15,
2084.000,0.15,
2083.000,0.15,
2082.000,0.14,
2081.000,0.14,
2080.000,0.14,
2079.000,0.14,
2078.000,0.14,
2077.000,0.14,
2076.000,0.14,
2075.000,0.14,
2074.000,0.14,
2073.000,0.14,
2072.000,0.14,
2071.000,0.14,
2070.000,0.14,
2069.000,0.14,
2068.000,0.14,
2067.000,0.14,
2066.000,0.14,
2065.000,0.14,
2064.000,0.14,
2063.000,0.14,
2062.000,0.14,
2061.000,0.14,
2060.000,0.14,
2059.000,0.13,
2058.000,0.13,
2057.000,0.13,
2056.000,0.13,
2055.000,0.14,
2054.000,0.14,
2053.000,0.14,
2052.000,0.14,
2051.000,0.14,
2050.000,0.14,
2049.000,0.14,
2048.000,0.14,
2047.000,0.14,
2046.000,0.14,
2045.000,0.14,
2044.000,0.15,
2043.000,0.15,
2042.000,0.15,
2041.000,0.15,
2040.000,0.15,
2039.000,0.15,
2038.000,0.16,
2037.000,0.16,
2036.000,0.16,
2035.000,0.16,
2034.000,0.16,
2033.000,0.17,
2032.000,0.17,
2031.000,0.17,
2030.000,0.17,
2029.000,0.17,
2028.000,0.18,
2027.000,0.18,
2026.000,0.18,
2025.000,0.19,
2024.000,0.19,
2023.000,0.19,
2022.000,0.2,
2021.000,0.2,
2020.000,0.21,
2019.000,0.22,
2018.000,0.22,
2017.000,0.23,
2016.000,0.23,
2015.000,0.24,
2014.000,0.24,
2013.000,0.25,
2012.000,0.26,
2011.000,0.27,
2010.000,0.28,
2009.000,0.29,
2008.000,0.29,
2007.000,0.3,
2006.000,0.32,
2005.000,0.33,
2004.000,0.34,
2003.000,0.35,
2002.000,0.37,
2001.000,0.39,
2000.000,0.41,
1999.000,0.43,
1998.000,0.45,
1997.000,0.47,
1996.000,0.5,
1995.000,0.53,
1994.000,0.56,
1993.000,0.6,
1992.000,0.64,
1991.000,0.68,
1990.000,0.72,
1989.000,0.78,
1988.000,0.84,
1987.000,0.9,
1986.000,0.97,
1985.000,1.05,
1984.000,1.14,
1983.000,1.23,
1982.000,1.33,
1981.000,1.44,
1980.000,1.56,
1979.000,1.69,
1978.000,1.83,
1977.000,1.98,
1976.000,2.13,
1975.000,2.3,
1974.000,2.48,
1973.000,2.66,
1972.000,2.85,
1971.000,3.04,
1970.000,3.24,
1969.000,3.42,
1968.000,3.58,
1967.000,3.7,
1966.000,3.79,
1965.000,3.83,
1964.000,3.82,
1963.000,3.77,
1962.000,3.67,
1961.000,3.54,
1960.000,3.38,
1959.000,3.2,
1958.000,3.01,
1957.000,2.81,
1956.000,2.61,
1955.000,2.41,
1954.000,2.21,
1953.000,2.03,
1952.000,1.85,
1951.000,1.69,
1950.000,1.55,
1949.000,1.42,
1948.000,1.3,
1947.000,1.2,
1946.000,1.11,
1945.000,1.03,
1944.000,0.95,
1943.000,0.88,
1942.000,0.8,
1941.000,0.74,
1940.000,0.69,
1939.000,0.65,
1938.000,0.6,
1937.000,0.56,
1936.000,0.52,
1935.000,0.49,
1934.000,0.46,
1933.000,0.44,
1932.000,0.41,
1931.000,0.39,
1930.000,0.37,
1929.000,0.35,
1928.000,0.33,
1927.000,0.31,
1926.000,0.3,
1925.000,0.29,
1924.000,0.28,
1923.000,0.27,
1922.000,0.26,
1921.000,0.25,
1920.000,0.24,
1919.000,0.23,
1918.000,0.21,
1917.000,0.21,
1916.000,0.2,
1915.000,0.19,
1914.000,0.19,
1913.000,0.18,
1912.000,0.18,
1911.000,0.18,
1910.000,0.17,
1909.000,0.17,
1908.000,0.16,
1907.000,0.16,
1906.000,0.15,
1905.000,0.15,
1904.000,0.15,
1903.000,0.14,
1902.000,0.14,
1901.000,0.13,
1900.000,0.13,
1899.000,0.13,
1898.000,0.13,
1897.000,0.12,
1896.000,0.12,
1895.000,0.12,
1894.000,0.12,
1893.000,0.12,
1892.000,0.12,
1891.000,0.12,
1890.000,0.11,
1889.000,0.11,
1888.000,0.11,
1887.000,0.11,
1886.000,0.11,
1885.000,0.11,
1884.000,0.1,
1883.000,0.1,
1882.000,0.1,
1881.000,0.1,
1880.000,0.1,
1879.000,0.1,
1878.000,0.09,
1877.000,0.09,
1876.000,0.09,
1875.000,0.09,
1874.000,0.09,
1873.000,0.09,
1872.000,0.09,
1871.000,0.09,
1870.000,0.09,
1869.000,0.09,
1868.000,0.09,
1867.000,0.1,
1866.000,0.1,
1865.000,0.1,
1864.000,0.1,
1863.000,0.1,
1862.000,0.09,
1861.000,0.09,
1860.000,0.09,
1859.000,0.09,
1858.000,0.09,
1857.000,0.1,
1856.000,0.1,
1855.000,0.1,
1854.000,0.1,
1853.000,0.1,
1852.000,0.1,
1851.000,0.1,
1850.000,0.1,
1849.000,0.1,
1848.000,0.1,
1847.000,0.1,
1846.000,0.1,
1845.000,0.1,
1844.000,0.11,
1843.000,0.11,
1842.000,0.11,
1841.000,0.11,
1840.000,0.11,
1839.000,0.11,
1838.000,0.12,
1837.000,0.12,
1836.000,0.12,
1835.000,0.12,
1834.000,0.12,
1833.000,0.13,
1832.000,0.13,
1831.000,0.13,
1830.000,0.14,
1829.000,0.14,
1828.000,0.15,
1827.000,0.15,
1826.000,0.15,
1825.000,0.16,
1824.000,0.17,
1823.000,0.17,
1822.000,0.18,
1821.000,0.19,
1820.000,0.2,
1819.000,0.21,
1818.000,0.21,
1817.000,0.22,
1816.000,0.23,
1815.000,0.25,
1814.000,0.26,
1813.000,0.27,
1812.000,0.29,
1811.000,0.3,
1810.000,0.31,
1809.000,0.32,
1808.000,0.34,
1807.000,0.35,
1806.000,0.36,
1805.000,0.38,
1804.000,0.4,
1803.000,0.42,
1802.000,0.45,
1801.000,0.48,
1800.000,0.54,
1799.000,0.6,
1798.000,0.69,
1797.000,0.79,
1796.000,0.92,
1795.000,1.07,
1794.000,1.23,
1793.000,1.38,
1792.000,1.52,
1791.000,1.66,
1790.000,1.79,
1789.000,1.92,
1788.000,2.01,
1787.000,2.01,
1786.000,1.91,
1785.000,1.76,
1784.000,1.58,
1783.000,1.43,
1782.000,1.29,
1781.000,1.13,
1780.000,0.97,
1779.000,0.82,
1778.000,0.7,
1777.000,0.6,
1776.000,0.52,
1775.000,0.46,
1774.000,0.42,
1773.000,0.37,
1772.000,0.33,
1771.000,0.28,
1770.000,0.25,
1769.000,0.22,
1768.000,0.19,
1767.000,0.17,
1766.000,0.16,
1765.000,0.15,
1764.000,0.15,
1763.000,0.14,
1762.000,0.13,
1761.000,0.12,
1760.000,0.12,
1759.000,0.11,
1758.000,0.11,
1757.000,0.1,
1756.000,0.09,
1755.000,0.09,
1754.000,0.08,
1753.000,0.08,
1752.000,0.08,
1751.000,0.07,
1750.000,0.07,
1749.000,0.07,
1748.000,0.07,
1747.000,0.07,
1746.000,0.07,
1745.000,0.07,
1744.000,0.06,
1743.000,0.06,
1742.000,0.06,
1741.000,0.06,
1740.000,0.06,
1739.000,0.06,
1738.000,0.06,
1737.000,0.07,
1736.000,0.07,
1735.000,0.08,
1734.000,0.07,
1733.000,0.07,
1732.000,0.06,
1731.000,0.06,
1730.000,0.04,
1729.000,0.03,
1728.000,0.02,
1727.000,0.01,
1726.000,0.01,
1725.000,1E-8,
1724.000,1E-8,
1723.000,1E-8,
1722.000,1E-8,
1721.000,1E-8,
1720.000,1E-8,
1719.000,1E-8,
1718.000,1E-8,
1717.000,1E-8,
1716.000,1E-8,
1715.000,1E-8,
1714.000,1E-8,
1713.000,1E-8,
1712.000,1E-8,
1711.000,1E-8,
1710.000,1E-8,
1709.000,1E-8,
1708.000,1E-8,
1707.000,1E-8,
1706.000,1E-8,
1705.000,1E-8,
1704.000,1E-8,
1703.000,1E-8,
1702.000,1E-8,
1701.000,1E-8,
1700.000,0.01,
1699.000,0.01,
1698.000,0.02,
1697.000,0.03,
1696.000,0.05,
1695.000,0.05,
1694.000,0.05,
1693.000,0.05,
1692.000,0.06,
1691.000,0.06,
1690.000,0.06,
1689.000,0.06,
1688.000,0.06,
1687.000,0.07,
1686.000,0.08,
1685.000,0.09,
1684.000,0.1,
1683.000,0.1,
1682.000,0.11,
1681.000,0.11,
1680.000,0.12,
1679.000,0.13,
1678.000,0.14,
1677.000,0.14,
1676.000,0.15,
1675.000,0.15,
1674.000,0.17,
1673.000,0.19,
1672.000,0.23,
1671.000,0.26,
1670.000,0.3,
1669.000,0.33,
1668.000,0.38,
1667.000,0.45,
1666.000,0.53,
1665.000,0.62,
1664.000,0.71,
1663.000,0.77,
1662.000,0.82,
1661.000,0.84,
1660.000,0.84,
1659.000,0.81,
1658.000,0.76,
1657.000,0.7,
1656.000,0.67,
1655.000,0.64,
1654.000,0.6,
1653.000,0.52,
1652.000,0.44,
1651.000,0.4,
1650.000,0.37,
1649.000,0.33,
1648.000,0.29,
1647.000,0.26,
1646.000,0.23,
1645.000,0.2,
1644.000,0.19,
1643.000,0.17,
1642.000,0.16,
1641.000,0.15,
1640.000,0.14,
1639.000,0.13,
1638.000,0.13,
1637.000,0.13,
1636.000,0.13,
1635.000,0.12,
1634.000,0.11,
1633.000,0.11,
1632.000,0.1,
1631.000,0.1,
1630.000,0.1,
1629.000,0.1,
1628.000,0.09,
1627.000,0.09,
1626.000,0.09,
1625.000,0.09,
1624.000,0.09,
1623.000,0.08,
1622.000,0.08,
1621.000,0.08,
1620.000,0.08,
1619.000,0.07,
1618.000,0.07,
1617.000,0.07,
1616.000,0.07,
1615.000,0.07,
1614.000,0.07,
1613.000,0.06,
1612.000,0.06,
1611.000,0.06,
1610.000,0.06,
1609.000,0.06,
1608.000,0.06,
1607.000,0.06,
1606.000,0.06,
1605.000,0.06,
1604.000,0.06,
1603.000,0.06,
1602.000,0.06,
1601.000,0.06,
1600.000,0.06,
1599.000,0.06,
1598.000,0.06,
1597.000,0.06,
1596.000,0.06,
1595.000,0.06,
1594.000,0.06,
1593.000,0.06,
1592.000,0.06,
1591.000,0.06,
1590.000,0.06,
1589.000,0.06,
1588.000,0.06,
1587.000,0.06,
1586.000,0.06,
1585.000,0.06,
1584.000,0.06,
1583.000,0.06,
1582.000,0.06,
1581.000,0.06,
1580.000,0.06,
1579.000,0.06,
1578.000,0.07,
1577.000,0.07,
1576.000,0.07,
1575.000,0.07,
1574.000,0.07,
1573.000,0.07,
1572.000,0.07,
1571.000,0.07,
1570.000,0.07,
1569.000,0.07,
1568.000,0.07,
1567.000,0.07,
1566.000,0.07,
1565.000,0.08,
1564.000,0.08,
1563.000,0.08,
1562.000,0.08,
1561.000,0.09,
1560.000,0.09,
1559.000,0.1,
1558.000,0.1,
1557.000,0.1,
1556.000,0.1,
1555.000,0.1,
1554.000,0.11,
1553.000,0.11,
1552.000,0.12,
1551.000,0.12,
1550.000,0.12,
1549.000,0.13,
1548.000,0.14,
1547.000,0.14,
1546.000,0.15,
1545.000,0.15,
1544.000,0.16,
1543.000,0.17,
1542.000,0.18,
1541.000,0.19,
1540.000,0.21,
1539.000,0.22,
1538.000,0.24,
1537.000,0.25,
1536.000,0.33,
1535.000,0.34,
1534.000,0.34,
1533.000,0.35,
1532.000,0.38,
1531.000,0.42,
1530.000,0.47,
1529.000,0.52,
1528.000,0.56,
1527.000,0.62,
1526.000,0.68,
1525.000,0.75,
1524.000,0.85,
1523.000,0.97,
1522.000,1.08,
1521.000,1.16,
1520.000,1.21,
1519.000,1.27,
1518.000,1.33,
1517.000,1.36,
1516.000,1.38,
1515.000,1.41,
1514.000,1.43,
1513.000,1.43,
1512.000,1.39,
1511.000,1.36,
1510.000,1.27,
1509.000,1.2,
1508.000,1.12,
1507.000,1.02,
1506.000,0.91,
1505.000,0.81,
1504.000,0.72,
1503.000,0.65,
1502.000,0.59,
1501.000,0.53,
1500.000,0.48,
1499.000,0.43,
1498.000,0.39,
1497.000,0.36,
1496.000,0.33,
1495.000,0.3,
1494.000,0.27,
1493.000,0.25,
1492.000,0.25,
1491.000,0.22,
1490.000,0.2,
1489.000,0.19,
1488.000,0.17,
1487.000,0.16,
1486.000,0.15,
1485.000,0.14,
1484.000,0.13,
1483.000,0.12,
1482.000,0.11,
1481.000,0.11,
1480.000,0.1,
1479.000,0.09,
1478.000,0.09,
1477.000,0.08,
1476.000,0.08,
1475.000,0.07,
1474.000,0.07,
1473.000,0.07,
1472.000,0.06,
1471.000,0.06,
1470.000,0.06,
1469.000,0.05,
1468.000,0.05,
1467.000,0.05,
1466.000,0.05,
1465.000,0.05,
1464.000,0.05,
1463.000,0.05,
1462.000,0.04,
1461.000,0.04,
1460.000,0.04,
1459.000,0.04,
1458.000,0.04,
1457.000,0.04,
1456.000,0.03,
1455.000,0.03,
1454.000,0.02,
1453.000,0.02,
1452.000,0.02,
1451.000,0.02,
1450.000,0.01,
1449.000,0.02,
1448.000,0.02,
1447.000,0.02,
1446.000,0.03,
1445.000,0.04,
1444.000,0.04,
1443.000,0.05,
1442.000,0.05,
1441.000,0.05,
1440.000,0.05,
1439.000,0.04,
1438.000,0.04,
1437.000,0.04,
1436.000,0.03,
1435.000,0.03,
1434.000,0.03,
1433.000,0.03,
1432.000,0.03,
1431.000,0.03,
1430.000,0.03,
1429.000,0.02,
1428.000,0.02,
1427.000,0.02,
1426.000,0.02,
1425.000,0.03,
1424.000,0.03,
1423.000,0.03,
1422.000,0.03,
1421.000,0.03,
1420.000,0.03,
1419.000,0.03,
1418.000,0.03,
1417.000,0.04,
1416.000,0.04,
1415.000,0.04,
1414.000,0.04,
1413.000,0.04,
1412.000,0.04,
1411.000,0.04,
1410.000,0.04,
1409.000,0.04,
1408.000,0.04,
1407.000,0.04,
1406.000,0.04,
1405.000,0.04,
1404.000,0.04,
1403.000,0.04,
1402.000,0.04,
1401.000,0.04,
1400.000,0.04,
1399.000,0.03,
1398.000,0.03,
1397.000,0.03,
1396.000,0.03,
1395.000,0.03,
1394.000,0.03,
1393.000,0.03,
1392.000,0.04,
1391.000,0.04,
1390.000,0.04,
1389.000,0.04,
1388.000,0.04,
1387.000,0.03,
1386.000,0.03,
1385.000,0.04,
1384.000,0.04,
1383.000,0.04,
1382.000,0.04,
1381.000,0.04,
1380.000,0.04,
1379.000,0.04,
1378.000,0.04,
1377.000,0.04,
1376.000,0.04,
1375.000,0.04,
1374.000,0.04,
1373.000,0.04,
1372.000,0.04,
1371.000,0.04,
1370.000,0.04,
1369.000,0.04,
1368.000,0.04,
1367.000,0.05,
1366.000,0.05,
1365.000,0.05,
1364.000,0.05,
1363.000,0.05,
1362.000,0.05,
1361.000,0.05,
1360.000,0.06,
1359.000,0.06,
1358.000,0.06,
1357.000,0.07,
1356.000,0.07,
1355.000,0.07,
1354.000,0.08,
1353.000,0.08,
1352.000,0.08,
1351.000,0.07,
1350.000,0.07,
1349.000,0.06,
1348.000,0.05,
1347.000,0.04,
1346.000,0.04,
1345.000,0.04,
1344.000,0.04,
1343.000,0.04,
1342.000,0.04,
1341.000,0.04,
1340.000,0.04,
1339.000,0.03,
1338.000,0.03,
1337.000,0.03,
1336.000,0.03,
1335.000,0.04,
1334.000,0.04,
1333.000,0.05,
1332.000,0.05,
1331.000,0.06,
1330.000,0.07,
1329.000,0.07,
1328.000,0.08,
1327.000,0.09,
1326.000,0.1,
1325.000,0.1,
1324.000,0.11,
1323.000,0.11,
1322.000,0.11,
1321.000,0.1,
1320.000,0.09,
1319.000,0.08,
1318.000,0.07,
1317.000,0.05,
1316.000,0.04,
1315.000,0.03,
1314.000,0.02,
1313.000,0.02,
1312.000,0.02,
1311.000,0.01,
1310.000,0.01,
1309.000,0.02,
1308.000,0.02,
1307.000,0.02,
1306.000,0.02,
1305.000,0.03,
1304.000,0.04,
1303.000,0.04,
1302.000,0.05,
1301.000,0.06,
1300.000,0.06,
1299.000,0.08,
1298.000,0.09,
1297.000,0.1,
1296.000,0.12,
1295.000,0.14,
1294.000,0.16,
1293.000,0.19,
1292.000,0.23,
1291.000,0.26,
1290.000,0.31,
1289.000,0.36,
1288.000,0.41,
1287.000,0.46,
1286.000,0.51,
1285.000,0.54,
1284.000,0.56,
1283.000,0.56,
1282.000,0.54,
1281.000,0.5,
1280.000,0.46,
1279.000,0.42,
1278.000,0.37,
1277.000,0.33,
1276.000,0.29,
1275.000,0.26,
1274.000,0.23,
1273.000,0.2,
1272.000,0.18,
1271.000,0.16,
1270.000,0.14,
1269.000,0.13,
1268.000,0.11,
1267.000,0.1,
1266.000,0.1,
1265.000,0.09,
1264.000,0.09,
1263.000,0.09,
1262.000,0.09,
1261.000,0.09,
1260.000,0.08,
1259.000,0.08,
1258.000,0.08,
1257.000,0.07,
1256.000,0.06,
1255.000,0.06,
1254.000,0.06,
1253.000,0.05,
1252.000,0.05,
1251.000,0.05,
1250.000,0.04,
1249.000,0.04,
1248.000,0.04,
1247.000,0.04,
1246.000,0.04,
1245.000,0.03,
1244.000,0.03,
1243.000,0.03,
1242.000,0.03,
1241.000,0.03,
1240.000,0.03,
1239.000,0.03,
1238.000,0.02,
1237.000,0.02,
1236.000,0.02,
1235.000,0.02,
1234.000,0.02,
1233.000,0.02,
1232.000,0.01,
1231.000,0.01,
1230.000,0.01,
1229.000,0.01,
1228.000,0.01,
1227.000,0.01,
1226.000,0.01,
1225.000,0.01,
1224.000,0.01,
1223.000,0.01,
1222.000,0.01,
1221.000,0.01,
1220.000,0.01,
1219.000,0.01,
1218.000,0.01,
1217.000,0.02,
1216.000,0.03,
1215.000,0.03,
1214.000,0.03,
1213.000,0.04,
1212.000,0.03,
1211.000,0.03,
1210.000,0.03,
1209.000,0.03,
1208.000,0.03,
1207.000,0.03,
1206.000,0.03,
1205.000,0.03,
1204.000,0.03,
1203.000,0.02,
1202.000,0.02,
1201.000,0.03,
1200.000,0.03,
1199.000,0.03,
1198.000,0.02,
1197.000,0.02,
1196.000,0.02,
1195.000,0.02,
1194.000,0.02,
1193.000,0.02,
1192.000,0.02,
1191.000,0.02,
1190.000,0.02,
1189.000,0.02,
1188.000,0.02,
1187.000,0.02,
1186.000,0.02,
1185.000,0.02,
1184.000,0.02,
1183.000,0.02,
1182.000,0.01,
1181.000,0.01,
1180.000,0.01,
1179.000,0.01,
1178.000,0.01,
1177.000,0.02,
1176.000,0.02,
1175.000,0.02,
1174.000,0.02,
1173.000,0.02,
1172.000,0.01,
1171.000,0.01,
1170.000,0.01,
1169.000,0.02,
1168.000,0.02,
1167.000,0.02,
1166.000,0.01,
1165.000,0.01,
1164.000,0.01,
1163.000,0.01,
1162.000,0.02,
1161.000,0.02,
1160.000,0.02,
1159.000,0.02,
1158.000,0.02,
1157.000,0.01,
1156.000,0.01,
1155.000,0.02,
1154.000,0.02,
1153.000,0.02,
1152.000,0.02,
1151.000,0.02,
1150.000,0.02,
1149.000,0.02,
1148.000,0.01,
1147.000,0.01,
1146.000,0.01,
1145.000,0.01,
1144.000,0.01,
1143.000,0.02,
1142.000,0.02,
1141.000,0.02,
1140.000,0.02,
1139.000,0.02,
1138.000,0.02,
1137.000,0.02,
1136.000,0.02,
1135.000,0.03,
1134.000,0.03,
1133.000,0.03,
1132.000,0.03,
1131.000,0.03,
1130.000,0.03,
1129.000,0.03,
1128.000,0.03,
1127.000,0.03,
1126.000,0.03,
1125.000,0.03,
1124.000,0.02,
1123.000,0.02,
1122.000,0.01,
1121.000,0.01,
1120.000,0.01,
1119.000,0.01,
1118.000,0.01,
1117.000,0.01,
1116.000,0.01,
1115.000,0.01,
1114.000,1E-8,
1113.000,1E-8,
1112.000,1E-8,
1111.000,0.01,
1110.000,0.01,
1109.000,0.01,
1108.000,0.01,
1107.000,0.01,
1106.000,0.01,
1105.000,0.02,
1104.000,0.02,
1103.000,0.02,
1102.000,0.02,
1101.000,0.02,
1100.000,0.03,
1099.000,0.03,
1098.000,0.03,
1097.000,0.03,
1096.000,0.03,
1095.000,0.03,
1094.000,0.04,
1093.000,0.04,
1092.000,0.04,
1091.000,0.04,
1090.000,0.05,
1089.000,0.05,
1088.000,0.06,
1087.000,0.06,
1086.000,0.06,
1085.000,0.06,
1084.000,0.07,
1083.000,0.08,
1082.000,0.08,
1081.000,0.09,
1080.000,0.09,
1079.000,0.1,
1078.000,0.1,
1077.000,0.09,
1076.000,0.09,
1075.000,0.09,
1074.000,0.08,
1073.000,0.08,
1072.000,0.08,
1071.000,0.07,
1070.000,0.07,
1069.000,0.07,
1068.000,0.07,
1067.000,0.07,
1066.000,0.07,
1065.000,0.06,
1064.000,0.06,
1063.000,0.06,
1062.000,0.05,
1061.000,0.05,
1060.000,0.05,
1059.000,0.04,
1058.000,0.04,
1057.000,0.03,
1056.000,0.03,
1055.000,0.03,
1054.000,0.03,
1053.000,0.03,
1052.000,0.03,
1051.000,0.03,
1050.000,0.03,
1049.000,0.03,
1048.000,0.04,
1047.000,0.04,
1046.000,0.04,
1045.000,0.04,
1044.000,0.04,
1043.000,0.04,
1042.000,0.04,
1041.000,0.04,
1040.000,0.04,
1039.000,0.03,
1038.000,0.03,
1037.000,0.03,
1036.000,0.03,
1035.000,0.03,
1034.000,0.03,
1033.000,0.02,
1032.000,0.02,
1031.000,0.02,
1030.000,0.01,
1029.000,0.01,
1028.000,0.01,
1027.000,0.02,
1026.000,0.02,
1025.000,0.02,
1024.000,0.02,
1023.000,0.02,
1022.000,0.01,
1021.000,0.01,
1020.000,0.01,
1019.000,0.01,
1018.000,0.01,
1017.000,0.01,
1016.000,0.01,
1015.000,0.01,
1014.000,0.01,
1013.000,0.01,
1012.000,0.01,
1011.000,0.01,
1010.000,0.01,
1009.000,0.01,
1008.000,0.01,
1007.000,0.01,
1006.000,0.01,
1005.000,0.01,
1004.000,0.01,
1003.000,0.01,
1002.000,0.01,
1001.000,0.01,
1000.000,0.01,
999.000,0.01,
998.000,0.01,
997.000,0.01,
996.000,0.01,
995.000,0.01,
994.000,0.01,
993.000,0.01,
992.000,0.01,
991.000,0.01,
990.000,0.01,
989.000,0.01,
988.000,1E-8,
987.000,1E-8,
986.000,1E-8,
985.000,1E-8,
984.000,0.01,
983.000,0.01,
982.000,0.01,
981.000,0.01,
980.000,1E-8,
979.000,1E-8,
978.000,1E-8,
977.000,1E-8,
976.000,1E-8,
975.000,1E-8,
974.000,1E-8,
973.000,1E-8,
972.000,1E-8,
971.000,0.01,
970.000,0.01,
969.000,1E-8,
968.000,1E-8,
967.000,1E-8,
966.000,1E-8,
965.000,1E-8,
964.000,1E-8,
963.000,1E-8,
962.000,1E-8,
961.000,1E-8,
960.000,1E-8,
959.000,1E-8,
958.000,1E-8,
957.000,1E-8,
956.000,0.01,
955.000,0.01,
954.000,0.01,
953.000,0.01,
952.000,0.01,
951.000,0.01,
950.000,0.01,
949.000,0.01,
948.000,0.01,
947.000,0.01,
946.000,0.01,
945.000,1E-8,
944.000,1E-8,
943.000,1E-8,
942.000,1E-8,
941.000,1E-8,
940.000,1E-8,
939.000,1E-8,
938.000,0.01,
937.000,0.01,
936.000,0.01,
935.000,1E-8,
934.000,1E-8,
933.000,1E-8,
932.000,0.01,
931.000,0.01,
930.000,0.01,
929.000,0.01,
928.000,1E-8,
927.000,1E-8,
926.000,1E-8,
925.000,1E-8,
924.000,1E-8,
923.000,1E-8,
922.000,1E-8,
921.000,1E-8,
920.000,1E-8,
919.000,1E-8,
918.000,0.01,
917.000,0.01,
916.000,0.01,
915.000,0.01,
914.000,0.01,
913.000,0.01,
912.000,0.01,
911.000,0.01,
910.000,0.01,
909.000,0.01,
908.000,0.01,
907.000,0.01,
906.000,0.01,
905.000,0.01,
904.000,0.01,
903.000,0.01,
902.000,0.01,
901.000,0.01,
900.000,0.01,
899.000,0.01,
898.000,0.01,
897.000,0.01,
896.000,0.01,
895.000,0.01,
894.000,0.01,
893.000,0.01,
892.000,0.01,
891.000,0.01,
890.000,0.01,
889.000,0.01,
888.000,0.01,
887.000,0.01,
886.000,1E-8,
885.000,1E-8,
884.000,1E-8,
883.000,1E-8,
882.000,0.01,
881.000,0.01,
880.000,0.01,
879.000,0.01,
878.000,0.01,
877.000,0.01,
876.000,0.01,
875.000,0.01,
874.000,0.01,
873.000,1E-8,
872.000,1E-8,
871.000,1E-8,
870.000,0.01,
869.000,0.01,
868.000,0.01,
867.000,0.01,
866.000,0.01,
865.000,0.01,
864.000,0.01,
863.000,0.01,
862.000,0.01,
861.000,0.01,
860.000,1E-8,
859.000,0.01,
858.000,0.01,
857.000,0.01,
856.000,1E-8,
855.000,1E-8,
854.000,1E-8,
853.000,1E-8,
852.000,1E-8,
851.000,0.01,
850.000,0.01,
849.000,0.01,
848.000,0.01,
847.000,0.01,
846.000,0.01,
845.000,0.01,
844.000,0.01,
843.000,0.01,
842.000,0.01,
841.000,0.01,
840.000,0.01,
839.000,0.01,
838.000,0.01,
837.000,0.01,
836.000,1E-8,
835.000,0.01,
834.000,0.01,
833.000,0.01,
832.000,0.01,
831.000,0.01,
830.000,1E-8,
829.000,1E-8,
828.000,1E-8,
827.000,0.01,
826.000,0.01,
825.000,0.01,
824.000,0.01,
823.000,0.01,
822.000,0.01,
821.000,1E-8,
820.000,1E-8,
819.000,0.01,
818.000,1E-8,
817.000,1E-8,
816.000,1E-8,
815.000,0.01,
814.000,0.01,
813.000,0.01,
812.000,0.01,
811.000,0.01,
810.000,0.01,
809.000,0.01,
808.000,0.01,
807.000,0.01,
806.000,0.01,
805.000,0.01,
804.000,0.01,
803.000,0.01,
802.000,0.01,
801.000,0.01,
800.000,0.01,
799.000,0.01,
798.000,0.01,
797.000,0.01,
796.000,1E-8,
795.000,0.01,
794.000,0.01,
793.000,0.01,
792.000,0.01,
791.000,0.01,
790.000,0.01,
789.000,0.01,
788.000,0.02,
787.000,0.01,
786.000,0.01,
785.000,0.01,
784.000,0.01,
783.000,0.01,
782.000,0.01,
781.000,0.01,
780.000,0.01,
779.000,0.01,
778.000,0.01,
777.000,1E-8,
776.000,1E-8,
775.000,1E-8,
774.000,1E-8,
773.000,1E-8,
772.000,1E-8,
771.000,1E-8,
770.000,0.01,
769.000,0.01,
768.000,1E-8,
767.000,0.01,
766.000,0.01,
765.000,0.01,
764.000,0.01,
763.000,0.01,
762.000,0.01,
761.000,0.01,
760.000,0.01,
759.000,0.01,
758.000,1E-8,
757.000,1E-8,
756.000,1E-8,
755.000,1E-8,
754.000,0.01,
753.000,0.01,
752.000,0.02,
751.000,0.02,
750.000,0.02,
749.000,0.01,
748.000,0.01,
747.000,0.01,
746.000,0.01,
745.000,0.01,
744.000,0.01,
743.000,0.01,
742.000,1E-8,
741.000,1E-8,
740.000,1E-8,
739.000,0.01,
738.000,0.01,
737.000,0.01,
736.000,0.01,
735.000,0.01,
734.000,0.01,
733.000,0.01,
732.000,0.01,
731.000,0.01,
730.000,0.01,
729.000,0.01,
728.000,0.01,
727.000,0.01,
726.000,0.01,
725.000,0.01,
724.000,0.01,
723.000,0.01,
722.000,0.01,
721.000,0.01,
720.000,0.01,
719.000,0.01,
718.000,0.01,
717.000,0.01,
716.000,0.01,
715.000,0.01,
714.000,0.01,
713.000,0.01,
712.000,0.01,
711.000,0.01,
710.000,0.01,
709.000,0.01,
708.000,0.01,
707.000,0.01,
706.000,0.01,
705.000,0.01,
704.000,0.01,
703.000,0.01,
702.000,0.01,
701.000,0.01,
700.000,0.01,
699.000,0.01,
698.000,0.01,
697.000,0.01,
696.000,0.01,
695.000,0.01,
694.000,0.01,
693.000,0.01,
692.000,0.01,
691.000,0.01,
690.000,0.01,
689.000,0.01,
688.000,0.01,
687.000,1E-8,
686.000,0.01,
685.000,0.01,
684.000,0.01,
683.000,0.01,
682.000,0.01,
681.000,0.01,
680.000,1E-8,
679.000,0.01,
678.000,0.01,
677.000,0.01,
676.000,0.01,
675.000,0.01,
674.000,0.01,
673.000,0.01,
672.000,0.01,
671.000,0.01,
670.000,0.01,
669.000,0.01,
668.000,0.01,
667.000,0.01,
666.000,0.01,
665.000,0.01,
664.000,0.01,
663.000,0.01,
662.000,0.01,
661.000,0.01,
660.000,0.01,
659.000,0.01,
658.000,0.01,
657.000,0.01,
656.000,0.01,
655.000,0.01,
654.000,0.01,
653.000,0.01,
652.000,0.01,
651.000,0.01,
650.000,0.01,
649.000,0.01,
648.000,0.01,
647.000,0.01,
646.000,0.01,
645.000,0.01,
644.000,0.01,
643.000,1E-8,
642.000,1E-8,
641.000,0.01,
640.000,0.01,
639.000,0.01,
638.000,0.01,
637.000,0.01,
636.000,0.01,
635.000,0.01,
634.000,1E-8,
633.000,1E-8,
632.000,0.01,
631.000,0.01,
630.000,1E-8,
629.000,1E-8,
628.000,1E-8,
627.000,1E-8,
626.000,1E-8,
625.000,0.01,
624.000,0.01,
623.000,0.01,
622.000,0.01,
621.000,0.01,
620.000,0.01,
619.000,0.02,
618.000,0.02,
617.000,0.02,
616.000,0.02,
615.000,0.02,
614.000,0.01,
613.000,0.01,
612.000,0.01,
611.000,0.01,
610.000,0.01,
609.000,0.01,
608.000,0.01,
607.000,0.02,
606.000,0.02,
605.000,0.02,
604.000,0.02,
603.000,0.02,
602.000,0.01,
601.000,0.01,
600.000,0.01,
599.000,0.01,
598.000,0.01,
597.000,0.01,
596.000,0.01,
595.000,0.01,
594.000,0.01,
593.000,0.01,
592.000,0.01,
591.000,0.01,
590.000,0.01,
589.000,1E-8,
588.000,1E-8,
587.000,1E-8,
586.000,1E-8,
585.000,0.01,
584.000,0.01,
583.000,0.01,
582.000,0.01,
581.000,0.01,
580.000,0.01,
579.000,0.01,
578.000,1E-8,
577.000,1E-8,
576.000,0.01,
575.000,0.01,
574.000,0.01,
573.000,0.01,
572.000,0.01,
571.000,0.01,
570.000,0.02,
569.000,0.02,
568.000,0.02,
567.000,0.02,
566.000,0.02,
565.000,0.02,
564.000,0.03,
563.000,0.02,
562.000,0.02,
561.000,0.02,
560.000,0.02,
559.000,0.02,
558.000,0.02,
557.000,0.02,
556.000,0.02,
555.000,0.02,
554.000,0.01,
553.000,0.01,
552.000,0.01,
551.000,0.01,
550.000,0.01,
549.000,0.01,
548.000,1E-8,
547.000,0.01,
546.000,0.01,
545.000,1E-8,
544.000,0.01,
543.000,0.02,
542.000,0.03,
541.000,0.02,
540.000,0.01,
539.000,0.01,
538.000,0.01,
537.000,0.02,
536.000,0.03,
535.000,0.04,
534.000,0.04,
533.000,0.03,
532.000,0.02,
531.000,0.01,
530.000,0.01,
529.000,0.02,
528.000,0.02,
527.000,0.02,
526.000,0.01,
525.000,0.01,
524.000,0.02,
523.000,0.03,
522.000,0.03,
521.000,0.04,
520.000,0.03,
519.000,0.03,
518.000,0.03,
517.000,0.03,
516.000,0.03,
515.000,0.03,
514.000,0.04,
513.000,0.04,
512.000,0.04,
511.000,0.04,
510.000,0.04,
509.000,0.03,
508.000,0.02,
507.000,0.02,
506.000,0.01,
505.000,0.01,
504.000,0.01,
503.000,0.01,
502.000,0.01,
501.000,0.01,
500.000,0.01,
499.000,0.01,
498.000,0.03,
497.000,0.04,
496.000,0.05,
495.000,0.04,
494.000,0.03,
493.000,0.04,
492.000,0.05,
491.000,0.06,
490.000,0.05,
489.000,0.04,
488.000,0.05,
487.000,0.06,
486.000,0.05,
485.000,0.03,
484.000,0.03,
483.000,0.03,
482.000,0.01,
481.000,0.02,
480.000,0.04,
479.000,0.06,
478.000,0.08,
477.000,0.09,
476.000,0.08,
475.000,0.04,
474.000,0.02,
473.000,0.04,
472.000,0.06,
471.000,0.07,
470.000,0.07,
469.000,0.07,
468.000,0.07,
467.000,0.07,
466.000,0.06,
465.000,0.05,
464.000,0.04,
463.000,0.03,
462.000,0.03,
461.000,0.04,
460.000,0.03,
459.000,0.02,
458.000,0.03,
457.000,0.04,
456.000,0.04,
455.000,0.03,
454.000,0.01,
453.000,0.02,
452.000,0.02,
451.000,0.02,
450.000,0.01,
449.000,1E-8,
448.000,0.01,
447.000,0.02,
446.000,0.01,
445.000,1E-8,
444.000,1E-8,
443.000,0.01,
442.000,0.03,
441.000,0.06,
440.000,0.08,
439.000,0.09,
438.000,0.09,
437.000,0.08,
436.000,0.09,
435.000,0.09,
434.000,0.09,
433.000,0.08,
432.000,0.09,
431.000,0.1,
430.000,0.11,
429.000,0.11,
428.000,0.11,
427.000,0.12,
426.000,0.13,
425.000,0.13,
424.000,0.14,
423.000,0.15,
422.000,0.15,
421.000,0.13,
420.000,0.11,
419.000,0.1,
418.000,0.08,
417.000,0.06,
416.000,0.06,
415.000,0.07,
414.000,0.06,
413.000,0.07,
412.000,0.09,
411.000,0.11,
410.000,0.11,
409.000,0.1,
408.000,0.1,
407.000,0.08,
406.000,0.06,
405.000,0.06,
404.000,0.06,
403.000,0.08,
402.000,0.12,
401.000,0.16,
400.000,0.18,
