,1,
Wavenumbers [1/cm],Transmittance,
7496.969,0.08127415,
7495.040,0.08348274,
7493.112,0.08543704,
7491.183,0.08674971,
7489.254,0.08824072,
7487.326,0.09056877,
7485.397,0.0933273,
7483.468,0.09616306,
7481.539,0.09921192,
7479.611,0.1025238,
7477.682,0.1057981,
7475.753,0.1086356,
7473.824,0.1110136,
7471.896,0.1135682,
7469.967,0.1170077,
7468.038,0.1209122,
7466.110,0.1242612,
7464.181,0.1272676,
7462.252,0.1307755,
7460.323,0.1345889,
7458.395,0.1381236,
7456.466,0.1414342,
7454.537,0.1448711,
7452.608,0.1483877,
7450.680,0.1518417,
7448.751,0.1554646,
7446.822,0.1590934,
7444.893,0.162003,
7442.965,0.1640407,
7441.036,0.1657006,
7439.107,0.1674628,
7437.179,0.1693644,
7435.250,0.1706985,
7433.321,0.171319,
7431.392,0.171991,
7429.464,0.172479,
7427.535,0.172323,
7425.606,0.1719726,
7423.677,0.1713725,
7421.749,0.170104,
7419.820,0.1683936,
7417.891,0.166731,
7415.963,0.1651528,
7414.034,0.1634481,
7412.105,0.1616392,
7410.176,0.1593602,
7408.248,0.1560294,
7406.319,0.1521953,
7404.390,0.1489893,
7402.461,0.1464855,
7400.533,0.1437074,
7398.604,0.1402082,
7396.675,0.1368113,
7394.747,0.1339214,
7392.818,0.1308476,
7390.889,0.1276203,
7388.960,0.124776,
7387.032,0.1217016,
7385.103,0.1177799,
7383.174,0.1138591,
7381.245,0.1104913,
7379.317,0.1070496,
7377.388,0.1036518,
7375.459,0.101076,
7373.531,0.09908354,
7371.602,0.09685982,
7369.673,0.09434074,
7367.744,0.09197576,
7365.816,0.08986162,
7363.887,0.08802706,
7361.958,0.08649371,
7360.029,0.08471259,
7358.101,0.08232678,
7356.172,0.07995757,
7354.243,0.07814325,
7352.314,0.07685215,
7350.386,0.07624869,
7348.457,0.07622059,
7346.528,0.07580506,
7344.600,0.07432722,
7342.671,0.07259867,
7340.742,0.07169612,
7338.813,0.07142791,
7336.885,0.0714641,
7334.956,0.07173635,
7333.027,0.07180586,
7331.098,0.0715479,
7329.170,0.07112354,
7327.241,0.07072733,
7325.312,0.07081588,
7323.384,0.07142029,
7321.455,0.07184457,
7319.526,0.07178061,
7317.597,0.07171322,
7315.669,0.07192276,
7313.740,0.07236561,
7311.811,0.07310922,
7309.882,0.07408734,
7307.954,0.07510182,
7306.025,0.07586296,
7304.096,0.07618637,
7302.168,0.07639404,
7300.239,0.07714412,
7298.310,0.07862486,
7296.381,0.08027804,
7294.453,0.08215764,
7292.524,0.08480748,
7290.595,0.08759221,
7288.666,0.08984201,
7286.738,0.09192467,
7284.809,0.09423143,
7282.880,0.09676749,
7280.952,0.09934929,
7279.023,0.102093,
7277.094,0.1050055,
7275.165,0.1075998,
7273.237,0.1099923,
7271.308,0.1125649,
7269.379,0.1151387,
7267.450,0.1179791,
7265.522,0.1214177,
7263.593,0.1246622,
7261.664,0.126887,
7259.736,0.1286869,
7257.807,0.1317127,
7255.878,0.1365584,
7253.949,0.1417903,
7252.021,0.1462621,
7250.092,0.1504734,
7248.163,0.1546242,
7246.234,0.1580092,
7244.306,0.1607332,
7242.377,0.1633102,
7240.448,0.1657772,
7238.519,0.1684808,
7236.591,0.1714044,
7234.662,0.1741308,
7232.733,0.1768406,
7230.805,0.1794383,
7228.876,0.1814437,
7226.947,0.1829474,
7225.018,0.1845256,
7223.090,0.1858368,
7221.161,0.1858808,
7219.232,0.1854697,
7217.303,0.1855967,
7215.375,0.1854896,
7213.446,0.1851499,
7211.517,0.1850162,
7209.589,0.1841246,
7207.660,0.1817989,
7205.731,0.1788695,
7203.802,0.1763911,
7201.874,0.174154,
7199.945,0.1714503,
7198.016,0.1684594,
7196.087,0.1654962,
7194.159,0.1624211,
7192.230,0.1591161,
7190.301,0.1555221,
7188.373,0.1517639,
7186.444,0.1480505,
7184.515,0.1442746,
7182.586,0.1402955,
7180.658,0.1362211,
7178.729,0.1322747,
7176.800,0.128603,
7174.871,0.1250668,
7172.943,0.1214582,
7171.014,0.1178094,
7169.085,0.114218,
7167.157,0.1109049,
7165.228,0.1080366,
7163.299,0.1051879,
7161.370,0.10211,
7159.442,0.09912214,
7157.513,0.09631395,
7155.584,0.09372797,
7153.655,0.09145236,
7151.727,0.08913483,
7149.798,0.08649011,
7147.869,0.0837756,
7145.941,0.0814236,
7144.012,0.07958515,
7142.083,0.07804886,
7140.154,0.07657363,
7138.226,0.07507654,
7136.297,0.0734637,
7134.368,0.07180588,
7132.439,0.07051446,
7130.511,0.06960729,
7128.582,0.06865639,
7126.653,0.06763969,
7124.724,0.06674732,
7122.796,0.06603018,
7120.867,0.06556022,
7118.938,0.06525893,
7117.010,0.06473127,
7115.081,0.06381794,
7113.152,0.06313302,
7111.223,0.06302702,
7109.295,0.06295181,
7107.366,0.06274801,
7105.437,0.06279539,
7103.508,0.06299217,
7101.580,0.06311159,
7099.651,0.0633226,
7097.722,0.06377513,
7095.794,0.06432386,
7093.865,0.0647857,
7091.936,0.06521108,
7090.007,0.065765,
7088.079,0.06650328,
7086.150,0.06740817,
7084.221,0.06830852,
7082.292,0.0691262,
7080.364,0.07023047,
7078.435,0.07172339,
7076.506,0.07305437,
7074.578,0.07416033,
7072.649,0.07561456,
7070.720,0.07750133,
7068.791,0.07949308,
7066.863,0.08144929,
7064.934,0.08334482,
7063.005,0.08533254,
7061.076,0.08772974,
7059.148,0.09051041,
7057.219,0.0933064,
7055.290,0.09598615,
7053.362,0.09868224,
7051.433,0.1015864,
7049.504,0.1048623,
7047.575,0.108478,
7045.647,0.1123279,
7043.718,0.1161632,
7041.789,0.1197788,
7039.860,0.1235649,
7037.932,0.127535,
7036.003,0.1310731,
7034.074,0.1345086,
7032.146,0.1384828,
7030.217,0.14271,
7028.288,0.1467065,
7026.359,0.1502103,
7024.431,0.1533264,
7022.502,0.1564047,
7020.573,0.159429,
7018.644,0.1623016,
7016.716,0.1649797,
7014.787,0.1673129,
7012.858,0.1692952,
7010.929,0.1710111,
7009.001,0.1725758,
7007.072,0.1739079,
7005.143,0.1747083,
7003.215,0.1749944,
7001.286,0.1748801,
6999.357,0.17433,
6997.428,0.1733532,
6995.500,0.1719216,
6993.571,0.170063,
6991.642,0.1679781,
6989.713,0.1657411,
6987.785,0.1631993,
6985.856,0.1605445,
6983.927,0.1579537,
6981.999,0.1548731,
6980.070,0.1512586,
6978.141,0.1477069,
6976.212,0.1442294,
6974.284,0.1406858,
6972.355,0.1370509,
6970.426,0.1332989,
6968.497,0.1296733,
6966.569,0.1262605,
6964.640,0.1227273,
6962.711,0.1188919,
6960.783,0.1151441,
6958.854,0.1117512,
6956.925,0.1083987,
6954.996,0.1049588,
6953.068,0.1017857,
6951.139,0.09896877,
6949.210,0.09605155,
6947.281,0.09294683,
6945.353,0.09018886,
6943.424,0.08795255,
6941.495,0.08592171,
6939.567,0.08386674,
6937.638,0.0817735,
6935.709,0.07973287,
6933.780,0.07781926,
6931.852,0.07609499,
6929.923,0.0745163,
6927.994,0.0728726,
6926.065,0.07122245,
6924.137,0.06988616,
6922.208,0.0687949,
6920.279,0.06772283,
6918.350,0.06685442,
6916.422,0.06622351,
6914.493,0.06543459,
6912.564,0.06457757,
6910.636,0.06414586,
6908.707,0.0640144,
6906.778,0.06377085,
6904.849,0.0634361,
6902.921,0.06315297,
6900.992,0.06297924,
6899.063,0.0629213,
6897.134,0.06290332,
6895.206,0.06291778,
6893.277,0.06302703,
6891.348,0.06345269,
6889.420,0.0643432,
6887.491,0.06521636,
6885.562,0.06567001,
6883.633,0.06605188,
6881.705,0.06656628,
6879.776,0.06710976,
6877.847,0.06794513,
6875.918,0.06927956,
6873.990,0.07077461,
6872.061,0.07199836,
6870.132,0.07303187,
6868.204,0.07424208,
6866.275,0.07566765,
6864.346,0.07737722,
6862.417,0.07950535,
6860.489,0.0815754,
6858.560,0.0833356,
6856.631,0.08534408,
6854.702,0.08777931,
6852.774,0.09020594,
6850.845,0.09249608,
6848.916,0.09492424,
6846.988,0.09762467,
6845.059,0.100491,
6843.130,0.1033253,
6841.201,0.1060537,
6839.273,0.1090458,
6837.344,0.1125948,
6835.415,0.1162653,
6833.486,0.1196072,
6831.558,0.1228967,
6829.629,0.1265693,
6827.700,0.1305842,
6825.772,0.1344517,
6823.843,0.1378475,
6821.914,0.1413262,
6819.985,0.1454202,
6818.057,0.1496072,
6816.128,0.153348,
6814.199,0.1568842,
6812.270,0.1605237,
6810.342,0.1641833,
6808.413,0.1677098,
6806.484,0.1710225,
6804.555,0.1739278,
6802.627,0.1762934,
6800.698,0.178345,
6798.769,0.1802981,
6796.841,0.1818663,
6794.912,0.182852,
6792.983,0.1835463,
6791.054,0.1839127,
6789.126,0.1836047,
6787.197,0.1828696,
6785.268,0.1820488,
6783.339,0.1807355,
6781.411,0.1787349,
6779.482,0.176517,
6777.553,0.1741077,
6775.625,0.1711804,
6773.696,0.1678345,
6771.767,0.1643634,
6769.838,0.1608028,
6767.910,0.1570629,
6765.981,0.1532173,
6764.052,0.1492724,
6762.123,0.1452115,
6760.195,0.1413319,
6758.266,0.1377078,
6756.337,0.1338479,
6754.409,0.1295869,
6752.480,0.1254163,
6750.551,0.121471,
6748.622,0.117498,
6746.694,0.1137221,
6744.765,0.1102937,
6742.836,0.1067456,
6740.907,0.1029767,
6738.979,0.0995381,
6737.050,0.09656569,
6735.121,0.09367649,
6733.193,0.09084702,
6731.264,0.08823652,
6729.335,0.08573703,
6727.406,0.08323781,
6725.478,0.08071812,
6723.549,0.07835164,
6721.620,0.07636538,
6719.691,0.074609,
6717.763,0.07287829,
6715.834,0.07121549,
6713.905,0.06963279,
6711.977,0.06809217,
6710.048,0.06668044,
6708.119,0.06550042,
6706.190,0.06456491,
6704.262,0.06380625,
6702.333,0.06301507,
6700.404,0.06206958,
6698.475,0.06115619,
6696.547,0.06048573,
6694.618,0.05994037,
6692.689,0.05930057,
6690.760,0.0587356,
6688.832,0.05846899,
6686.903,0.05838814,
6684.974,0.05837386,
6683.046,0.0583486,
6681.117,0.05826555,
6679.188,0.0583152,
6677.259,0.05861787,
6675.331,0.0588893,
6673.402,0.0589495,
6671.473,0.059174,
6669.544,0.05978124,
6667.616,0.0603806,
6665.687,0.0607708,
6663.758,0.06130015,
6661.830,0.06213658,
6659.901,0.06301003,
6657.972,0.0637688,
6656.043,0.06471591,
6654.115,0.06621329,
6652.186,0.06796292,
6650.257,0.06950858,
6648.328,0.07100049,
6646.400,0.07256108,
6644.471,0.07422677,
6642.542,0.07624494,
6640.614,0.07846673,
6638.685,0.08059636,
6636.756,0.08276782,
6634.827,0.08518434,
6632.899,0.08788537,
6630.970,0.09082465,
6629.041,0.09377175,
6627.112,0.09658819,
6625.184,0.09955516,
6623.255,0.1029002,
6621.326,0.1065538,
6619.398,0.110465,
6617.469,0.1145626,
6615.540,0.1187027,
6613.611,0.1228367,
6611.683,0.1269515,
6609.754,0.1309975,
6607.825,0.1351493,
6605.896,0.1395645,
6603.968,0.1438938,
6602.039,0.1478387,
6600.110,0.1516616,
6598.182,0.1556443,
6596.253,0.1595789,
6594.324,0.1630325,
6592.395,0.1659165,
6590.467,0.168557,
6588.538,0.1712753,
6586.609,0.1739466,
6584.680,0.1761035,
6582.752,0.1775773,
6580.823,0.1785546,
6578.894,0.1790566,
6576.965,0.1789462,
6575.037,0.1782458,
6573.108,0.1771828,
6571.179,0.1758421,
6569.251,0.173964,
6567.322,0.1716202,
6565.393,0.16921,
6563.464,0.1666265,
6561.536,0.1636034,
6559.607,0.1602336,
6557.678,0.1567075,
6555.749,0.1530982,
6553.821,0.1494134,
6551.892,0.1456964,
6549.963,0.1418465,
6548.035,0.137637,
6546.106,0.1331306,
6544.177,0.128674,
6542.248,0.1244382,
6540.320,0.1203483,
6538.391,0.1163965,
6536.462,0.1125941,
6534.533,0.1089381,
6532.605,0.1055264,
6530.676,0.1022805,
6528.747,0.09900764,
6526.819,0.09573779,
6524.890,0.09253128,
6522.961,0.08950784,
6521.032,0.08686297,
6519.104,0.084412,
6517.175,0.08186304,
6515.246,0.0792876,
6513.317,0.0769541,
6511.389,0.0750517,
6509.460,0.07339683,
6507.531,0.07167691,
6505.603,0.06990939,
6503.674,0.0681721,
6501.745,0.06654254,
6499.816,0.06526071,
6497.888,0.06424291,
6495.959,0.06319461,
6494.030,0.06223333,
6492.101,0.0615435,
6490.173,0.06102226,
6488.244,0.06045239,
6486.315,0.05975023,
6484.386,0.05914372,
6482.458,0.05871633,
6480.529,0.05825206,
6478.600,0.0578009,
6476.672,0.05755437,
6474.743,0.0574194,
6472.814,0.05737384,
6470.885,0.05758074,
6468.957,0.05792288,
6467.028,0.05818399,
6465.099,0.05848379,
6463.170,0.0589582,
6461.242,0.05944798,
6459.313,0.05988653,
6457.384,0.06043644,
6455.456,0.06115046,
6453.527,0.06196932,
6451.598,0.06282653,
6449.669,0.06374723,
6447.741,0.06483444,
6445.812,0.06609163,
6443.883,0.06752984,
6441.954,0.06910352,
6440.026,0.07065047,
6438.097,0.07217444,
6436.168,0.07385211,
6434.240,0.07577387,
6432.311,0.0778478,
6430.382,0.08001224,
6428.453,0.08233593,
6426.525,0.08482139,
6424.596,0.08743421,
6422.667,0.09019842,
6420.738,0.09313838,
6418.810,0.09625573,
6416.881,0.09942243,
6414.952,0.1025684,
6413.024,0.1059617,
6411.095,0.1096971,
6409.166,0.1134911,
6407.237,0.117274,
6405.309,0.1211289,
6403.380,0.1249685,
6401.451,0.1288074,
6399.522,0.1327841,
6397.594,0.1368489,
6395.665,0.1409758,
6393.736,0.1452416,
6391.808,0.1495118,
6389.879,0.1536584,
6387.950,0.1576737,
6386.021,0.1615616,
6384.093,0.1653738,
6382.164,0.1690024,
6380.235,0.1723261,
6378.306,0.1753515,
6376.378,0.1779883,
6374.449,0.1801336,
6372.520,0.1817948,
6370.591,0.1830791,
6368.663,0.1839658,
6366.734,0.1843056,
6364.805,0.1842108,
6362.877,0.1837387,
6360.948,0.1826355,
6359.019,0.1808779,
6357.090,0.1787973,
6355.162,0.1765755,
6353.233,0.1740438,
6351.304,0.1710721,
6349.375,0.167713,
6347.447,0.1639519,
6345.518,0.1598032,
6343.589,0.1554843,
6341.661,0.1512384,
6339.732,0.1471293,
6337.803,0.1430168,
6335.874,0.1386631,
6333.946,0.1340759,
6332.017,0.1295967,
6330.088,0.1253301,
6328.159,0.1210705,
6326.231,0.1168358,
6324.302,0.1127328,
6322.373,0.108695,
6320.445,0.1047246,
6318.516,0.1009173,
6316.587,0.09732452,
6314.658,0.09395591,
6312.730,0.09081903,
6310.801,0.08787924,
6308.872,0.08498329,
6306.943,0.08214813,
6305.015,0.07958699,
6303.086,0.0772135,
6301.157,0.0748149,
6299.229,0.07247232,
6297.300,0.07040989,
6295.371,0.06872647,
6293.442,0.0672401,
6291.514,0.06567853,
6289.585,0.06406344,
6287.656,0.06258935,
6285.727,0.06125459,
6283.799,0.05999275,
6281.870,0.05892936,
6279.941,0.05816041,
6278.013,0.0575062,
6276.084,0.05677685,
6274.155,0.05602102,
6272.226,0.05530143,
6270.298,0.05464667,
6268.369,0.05408327,
6266.440,0.05355592,
6264.511,0.05316069,
6262.583,0.05293887,
6260.654,0.05272227,
6258.725,0.05260755,
6256.796,0.05270524,
6254.868,0.05281279,
6252.939,0.05285236,
6251.010,0.05302239,
6249.082,0.05349955,
6247.153,0.05416841,
6245.224,0.05476636,
6243.295,0.05527438,
6241.367,0.05577622,
6239.438,0.05626557,
6237.509,0.05682651,
6235.580,0.05753291,
6233.652,0.05848221,
6231.723,0.05973618,
6229.794,0.06097275,
6227.866,0.06202734,
6225.937,0.06320544,
6224.008,0.06472254,
6222.079,0.06654684,
6220.151,0.06842279,
6218.222,0.07015684,
6216.293,0.07199704,
6214.364,0.07419357,
6212.436,0.07664095,
6210.507,0.07917994,
6208.578,0.08179725,
6206.650,0.08459217,
6204.721,0.08764154,
6202.792,0.09090996,
6200.863,0.09434302,
6198.935,0.09787888,
6197.006,0.1015043,
6195.077,0.1053439,
6193.148,0.1094196,
6191.220,0.1135739,
6189.291,0.1178056,
6187.362,0.1222833,
6185.434,0.1269704,
6183.505,0.1316831,
6181.576,0.1363873,
6179.647,0.1411005,
6177.719,0.1457803,
6175.790,0.1503474,
6173.861,0.1547706,
6171.932,0.1591669,
6170.004,0.163511,
6168.075,0.1675069,
6166.146,0.1709806,
6164.218,0.1740015,
6162.289,0.1766289,
6160.360,0.1788034,
6158.431,0.1805588,
6156.503,0.1819672,
6154.574,0.1827889,
6152.645,0.1828637,
6150.716,0.1823965,
6148.788,0.1814302,
6146.859,0.1798762,
6144.930,0.1778052,
6143.001,0.1753481,
6141.073,0.1726643,
6139.144,0.1697368,
6137.215,0.1663391,
6135.287,0.1624832,
6133.358,0.1584174,
6131.429,0.1542188,
6129.500,0.1498968,
6127.572,0.1455577,
6125.643,0.1411625,
6123.714,0.1366185,
6121.785,0.1319713,
6119.857,0.1272911,
6117.928,0.1226826,
6115.999,0.1182242,
6114.071,0.1139083,
6112.142,0.1097084,
6110.213,0.1056034,
6108.284,0.1017198,
6106.356,0.09815893,
6104.427,0.09472983,
6102.498,0.09133185,
6100.569,0.08813763,
6098.641,0.08516695,
6096.712,0.08226611,
6094.783,0.07946353,
6092.855,0.07688809,
6090.926,0.07449106,
6088.997,0.07220139,
6087.068,0.07011361,
6085.140,0.06827567,
6083.211,0.06661741,
6081.282,0.06508224,
6079.353,0.06363528,
6077.425,0.06224607,
6075.496,0.06091731,
6073.567,0.05978639,
6071.639,0.05895222,
6069.710,0.05821642,
6067.781,0.05740606,
6065.852,0.05664731,
6063.924,0.0560741,
6061.995,0.05558981,
6060.066,0.05502901,
6058.137,0.05443602,
6056.209,0.05399962,
6054.280,0.05373235,
6052.351,0.05347655,
6050.423,0.05319714,
6048.494,0.05309184,
6046.565,0.05327505,
6044.636,0.05351068,
6042.708,0.05359139,
6040.779,0.05355309,
6038.850,0.0534004,
6036.921,0.05326204,
6034.993,0.053415,
6033.064,0.05384271,
6031.135,0.05429135,
6029.206,0.05469384,
6027.278,0.05520754,
6025.349,0.05584881,
6023.420,0.05648558,
6021.492,0.05718439,
6019.563,0.05809886,
6017.634,0.0591928,
6015.705,0.06030238,
6013.777,0.06139804,
6011.848,0.06264798,
6009.919,0.06410945,
6007.990,0.06573667,
6006.062,0.06757459,
6004.133,0.06955626,
6002.204,0.07153029,
6000.276,0.07356554,
5998.347,0.07586204,
5996.418,0.07845735,
5994.489,0.08126,
5992.561,0.08424949,
5990.632,0.08742865,
5988.703,0.09077103,
5986.774,0.09430014,
5984.846,0.09807219,
5982.917,0.1021068,
5980.988,0.1063236,
5979.060,0.1105983,
5977.131,0.1149252,
5975.202,0.1194321,
5973.273,0.1241697,
5971.345,0.1290873,
5969.416,0.1341574,
5967.487,0.1392125,
5965.558,0.144095,
5963.630,0.1489253,
5961.701,0.1537571,
5959.772,0.1583811,
5957.844,0.1625997,
5955.915,0.1664912,
5953.986,0.170185,
5952.057,0.1735555,
5950.129,0.1764965,
5948.200,0.1789456,
5946.271,0.1807927,
5944.342,0.1821227,
5942.414,0.182957,
5940.485,0.183134,
5938.556,0.1826982,
5936.627,0.1817514,
5934.699,0.1802145,
5932.770,0.1780597,
5930.841,0.1753554,
5928.913,0.1721699,
5926.984,0.1686217,
5925.055,0.1648122,
5923.126,0.160758,
5921.198,0.1564591,
5919.269,0.1519194,
5917.340,0.1471942,
5915.411,0.1424199,
5913.483,0.1376988,
5911.554,0.1329743,
5909.625,0.1281329,
5907.697,0.1232771,
5905.768,0.1186232,
5903.839,0.1141583,
5901.910,0.1097205,
5899.982,0.1053079,
5898.053,0.1010838,
5896.124,0.09711506,
5894.195,0.09333646,
5892.267,0.08969359,
5890.338,0.08615195,
5888.409,0.08275251,
5886.481,0.07960533,
5884.552,0.07677273,
5882.623,0.07419862,
5880.694,0.07168671,
5878.766,0.06914485,
5876.837,0.06675545,
5874.908,0.06471726,
5872.979,0.06300937,
5871.051,0.06143548,
5869.122,0.05989267,
5867.193,0.05848667,
5865.265,0.05721946,
5863.336,0.0559324,
5861.407,0.05466621,
5859.478,0.05357501,
5857.550,0.05259893,
5855.621,0.05164418,
5853.692,0.05074474,
5851.763,0.04993437,
5849.835,0.04928617,
5847.906,0.04887962,
5845.977,0.04858188,
5844.049,0.04820975,
5842.120,0.04784189,
5840.191,0.04759644,
5838.262,0.04740377,
5836.334,0.04714606,
5834.405,0.04683542,
5832.476,0.04669841,
5830.547,0.04685623,
5828.619,0.04715053,
5826.690,0.04742218,
5824.761,0.04760797,
5822.832,0.04779988,
5820.904,0.04812574,
5818.975,0.04854419,
5817.046,0.04899842,
5815.118,0.04952211,
5813.189,0.05019885,
5811.260,0.05103516,
5809.331,0.05195994,
5807.403,0.05297128,
5805.474,0.05401867,
5803.545,0.05504969,
5801.616,0.05620985,
5799.688,0.057619,
5797.759,0.05920686,
5795.830,0.06086959,
5793.902,0.0625717,
5791.973,0.06439218,
5790.044,0.06641811,
5788.115,0.06860776,
5786.187,0.07091825,
5784.258,0.07337257,
5782.329,0.07597409,
5780.400,0.07875267,
5778.472,0.08179052,
5776.543,0.08507768,
5774.614,0.08855806,
5772.686,0.09226979,
5770.757,0.09622552,
5768.828,0.1003482,
5766.899,0.1045783,
5764.971,0.1089453,
5763.042,0.1134946,
5761.113,0.1182328,
5759.184,0.1231399,
5757.256,0.1281199,
5755.327,0.1330799,
5753.398,0.1380224,
5751.470,0.1430116,
5749.541,0.1479765,
5747.612,0.1526445,
5745.683,0.1569383,
5743.755,0.1610181,
5741.826,0.1648832,
5739.897,0.1683236,
5737.968,0.1712672,
5736.040,0.1738407,
5734.111,0.1759952,
5732.182,0.1775973,
5730.254,0.1786458,
5728.325,0.1791161,
5726.396,0.178972,
5724.467,0.1781812,
5722.539,0.1767896,
5720.610,0.175003,
5718.681,0.1728232,
5716.752,0.1700527,
5714.824,0.1667577,
5712.895,0.163095,
5710.966,0.1590914,
5709.037,0.1548747,
5707.109,0.1505339,
5705.180,0.1459337,
5703.251,0.1410764,
5701.323,0.1362607,
5699.394,0.1315733,
5697.465,0.1267703,
5695.536,0.1218026,
5693.608,0.1169435,
5691.679,0.1124028,
5689.750,0.1080276,
5687.821,0.1036063,
5685.893,0.09925569,
5683.964,0.09514971,
5682.035,0.0912772,
5680.107,0.08760584,
5678.178,0.08413698,
5676.249,0.08082239,
5674.320,0.07765908,
5672.392,0.07473303,
5670.463,0.07205496,
5668.534,0.06957194,
5666.605,0.06721819,
5664.677,0.06493167,
5662.748,0.06274898,
5660.819,0.06073317,
5658.891,0.05893608,
5656.962,0.05739587,
5655.033,0.05599661,
5653.104,0.05461344,
5651.176,0.05331672,
5649.247,0.05216331,
5647.318,0.05107389,
5645.389,0.05001139,
5643.461,0.04901095,
5641.532,0.0481062,
5639.603,0.04734413,
5637.675,0.04673459,
5635.746,0.04621839,
5633.817,0.04576016,
5631.888,0.04536341,
5629.960,0.04499177,
5628.031,0.04460867,
5626.102,0.04430445,
5624.173,0.04419893,
5622.245,0.0442015,
5620.316,0.04410689,
5618.387,0.04397284,
5616.459,0.04405377,
5614.530,0.0443465,
5612.601,0.0446535,
5610.672,0.04492779,
5608.744,0.04524741,
5606.815,0.0456748,
5604.886,0.04618893,
5602.957,0.04673658,
5601.029,0.04737279,
5599.100,0.04816213,
5597.171,0.04902274,
5595.242,0.04988188,
5593.314,0.05077442,
5591.385,0.05175298,
5589.456,0.05287904,
5587.528,0.05415466,
5585.599,0.05557512,
5583.670,0.05717355,
5581.741,0.05889178,
5579.813,0.06072452,
5577.884,0.062705,
5575.955,0.06475572,
5574.026,0.06692336,
5572.098,0.0693593,
5570.169,0.07202387,
5568.240,0.07482602,
5566.312,0.07782211,
5564.383,0.08104823,
5562.454,0.08449642,
5560.525,0.08815522,
5558.597,0.09199655,
5556.668,0.09610902,
5554.739,0.1005146,
5552.810,0.1051056,
5550.882,0.109927,
5548.953,0.1150017,
5547.024,0.1202238,
5545.096,0.1255578,
5543.167,0.1309304,
5541.238,0.1362943,
5539.309,0.1417799,
5537.381,0.1473519,
5535.452,0.1527562,
5533.523,0.1579124,
5531.594,0.1628637,
5529.666,0.1674928,
5527.737,0.1716628,
5525.808,0.1754028,
5523.880,0.1786327,
5521.951,0.1811259,
5520.022,0.1828805,
5518.093,0.1840577,
5516.165,0.1847312,
5514.236,0.1848425,
5512.307,0.184174,
5510.378,0.1826069,
5508.450,0.1804298,
5506.521,0.1779262,
5504.592,0.1749585,
5502.663,0.171363,
5500.735,0.1672422,
5498.806,0.1628099,
5496.877,0.1581509,
5494.949,0.153194,
5493.020,0.1480546,
5491.091,0.1429019,
5489.162,0.1377102,
5487.234,0.1325362,
5485.305,0.1274257,
5483.376,0.1222372,
5481.447,0.1169724,
5479.519,0.1118315,
5477.590,0.1068663,
5475.661,0.1021271,
5473.733,0.09777264,
5471.804,0.09361477,
5469.875,0.08942752,
5467.946,0.08541729,
5466.018,0.08174358,
5464.089,0.07828847,
5462.160,0.07502543,
5460.231,0.07208958,
5458.303,0.06944793,
5456.374,0.06692804,
5454.445,0.06449714,
5452.517,0.06218415,
5450.588,0.06001133,
5448.659,0.05800866,
5446.730,0.05617355,
5444.802,0.0544993,
5442.873,0.05297403,
5440.944,0.05161276,
5439.015,0.05039875,
5437.087,0.04922242,
5435.158,0.04810032,
5433.229,0.04710285,
5431.301,0.04614901,
5429.372,0.04528537,
5427.443,0.04465925,
5425.514,0.04417806,
5423.586,0.04367414,
5421.657,0.04312907,
5419.728,0.04260585,
5417.799,0.04214258,
5415.871,0.04173788,
5413.942,0.04144491,
5412.013,0.04135243,
5410.085,0.04139958,
5408.156,0.04143449,
5406.227,0.04144163,
5404.298,0.04149519,
5402.370,0.04161101,
5400.441,0.04177959,
5398.512,0.04201837,
5396.583,0.04228793,
5394.655,0.04256527,
5392.726,0.04300004,
5390.797,0.04359949,
5388.868,0.04413226,
5386.940,0.04465923,
5385.011,0.04544307,
5383.082,0.04644861,
5381.154,0.04746198,
5379.225,0.04835181,
5377.296,0.04925202,
5375.367,0.05045661,
5373.439,0.05191291,
5371.510,0.05337005,
5369.581,0.05486806,
5367.652,0.0565533,
5365.724,0.05841256,
5363.795,0.06044407,
5361.866,0.06269772,
5359.938,0.06509083,
5358.009,0.06749471,
5356.080,0.06995176,
5354.151,0.07274827,
5352.223,0.07610655,
5350.294,0.07980832,
5348.365,0.083478,
5346.436,0.0871141,
5344.508,0.09109717,
5342.579,0.0955251,
5340.650,0.100086,
5338.722,0.1048754,
5336.793,0.1101889,
5334.864,0.1157787,
5332.935,0.1213655,
5331.007,0.1269902,
5329.078,0.1326714,
5327.149,0.1385275,
5325.220,0.1446093,
5323.292,0.1506052,
5321.363,0.1562776,
5319.434,0.1615834,
5317.506,0.166478,
5315.577,0.1709666,
5313.648,0.1750297,
5311.719,0.1784582,
5309.791,0.1810418,
5307.862,0.1829687,
5305.933,0.1844576,
5304.004,0.1852302,
5302.076,0.185029,
5300.147,0.1840336,
5298.218,0.1824274,
5296.290,0.1801369,
5294.361,0.1769985,
5292.432,0.1729968,
5290.503,0.1685146,
5288.575,0.1639426,
5286.646,0.1591719,
5284.717,0.1540625,
5282.788,0.1486993,
5280.860,0.1431408,
5278.931,0.1375223,
5277.002,0.1319615,
5275.073,0.1263885,
5273.145,0.1207759,
5271.216,0.115234,
5269.287,0.1098588,
5267.359,0.1046334,
5265.430,0.0995226,
5263.501,0.09469815,
5261.572,0.09033752,
5259.644,0.08625752,
5257.715,0.08223271,
5255.786,0.07839783,
5253.857,0.07498503,
5251.929,0.07187423,
5250.000,0.06878907,
5248.071,0.06579451,
5246.143,0.06312478,
5244.214,0.06080985,
5242.285,0.0587079,
5240.356,0.05666097,
5238.428,0.05465222,
5236.499,0.05277932,
5234.570,0.05106943,
5232.641,0.04954097,
5230.713,0.04823577,
5228.784,0.04702354,
5226.855,0.04579556,
5224.927,0.04469955,
5222.998,0.04379908,
5221.069,0.04295048,
5219.140,0.04213944,
5217.212,0.04145357,
5215.283,0.0408552,
5213.354,0.04031277,
5211.425,0.03982963,
5209.497,0.03932668,
5207.568,0.03883805,
5205.639,0.03850634,
5203.711,0.03829863,
5201.782,0.03809395,
5199.853,0.03791045,
5197.924,0.03781028,
5195.996,0.03776736,
5194.067,0.03775561,
5192.138,0.0378018,
5190.209,0.03793622,
5188.281,0.03818873,
5186.352,0.03853838,
5184.423,0.03888867,
5182.495,0.03921277,
5180.566,0.03959661,
5178.637,0.04008081,
5176.708,0.04061553,
5174.780,0.04118302,
5172.851,0.04185212,
5170.922,0.04268986,
5168.993,0.0436642,
5167.065,0.04468557,
5165.136,0.04574838,
5163.207,0.04691013,
5161.278,0.04816574,
5159.350,0.04949298,
5157.421,0.05092353,
5155.492,0.05252159,
5153.564,0.05432688,
5151.635,0.05629002,
5149.706,0.05835917,
5147.777,0.0606323,
5145.849,0.06322396,
5143.920,0.06604335,
5141.991,0.0689481,
5140.062,0.07197364,
5138.134,0.07526019,
5136.205,0.07888527,
5134.276,0.0828207,
5132.348,0.08701109,
5130.419,0.09144451,
5128.490,0.09616838,
5126.561,0.1012052,
5124.633,0.1065227,
5122.704,0.1121241,
5120.775,0.1179742,
5118.846,0.1239606,
5116.918,0.1300095,
5114.989,0.1361323,
5113.060,0.1423703,
5111.132,0.1486489,
5109.203,0.1547935,
5107.274,0.1606891,
5105.345,0.1662481,
5103.417,0.171324,
5101.488,0.1757907,
5099.559,0.179611,
5097.630,0.1827518,
5095.702,0.1851297,
5093.773,0.1866533,
5091.844,0.1872828,
5089.916,0.1870566,
5087.987,0.186017,
5086.058,0.184147,
5084.129,0.1814468,
5082.201,0.1780067,
5080.272,0.1739563,
5078.343,0.1693881,
5076.414,0.1643581,
5074.486,0.1589632,
5072.557,0.1533356,
5070.628,0.1475398,
5068.700,0.1415934,
5066.771,0.1355482,
5064.842,0.1294873,
5062.913,0.1234895,
5060.985,0.1176193,
5059.056,0.1119002,
5057.127,0.1063323,
5055.198,0.1009796,
5053.270,0.095906,
5051.341,0.09109018,
5049.412,0.08651092,
5047.483,0.08218762,
5045.555,0.0781273,
5043.626,0.0743283,
5041.697,0.07078911,
5039.769,0.06749012,
5037.840,0.06443441,
5035.911,0.06162201,
5033.982,0.05903591,
5032.054,0.05668079,
5030.125,0.05449545,
5028.196,0.05242668,
5026.267,0.05053541,
5024.339,0.04885568,
5022.410,0.04734189,
5020.481,0.04593769,
5018.553,0.04461621,
5016.624,0.04338596,
5014.695,0.04224781,
5012.766,0.04118515,
5010.838,0.04023414,
5008.909,0.03942556,
5006.980,0.03868849,
5005.051,0.03799169,
5003.123,0.03736928,
5001.194,0.03681878,
4999.265,0.03634442,
4997.337,0.03594017,
4995.408,0.03556559,
4993.479,0.03521229,
4991.550,0.03492275,
4989.622,0.03471176,
4987.693,0.03454847,
4985.764,0.03445992,
4983.835,0.03448936,
4981.907,0.03456964,
4979.978,0.03461084,
4978.049,0.03466114,
4976.121,0.03480306,
4974.192,0.03500881,
4972.263,0.03526222,
4970.334,0.03558873,
4968.406,0.03594874,
4966.477,0.03632916,
4964.548,0.0368228,
4962.619,0.03747359,
4960.691,0.03818869,
4958.762,0.03889196,
4956.833,0.03963127,
4954.904,0.04047166,
4952.976,0.04140227,
4951.047,0.04245522,
4949.118,0.04370153,
4947.190,0.04505489,
4945.261,0.04642236,
4943.332,0.04790149,
4941.403,0.04958249,
4939.475,0.05143065,
4937.546,0.05340476,
4935.617,0.05553743,
4933.688,0.05790341,
4931.760,0.06051398,
4929.831,0.06332025,
4927.902,0.06631603,
4925.974,0.06954431,
4924.045,0.07306132,
4922.116,0.0769013,
4920.187,0.08105573,
4918.259,0.08551104,
4916.330,0.09026242,
4914.401,0.09533302,
4912.472,0.1007379,
4910.544,0.1064222,
4908.615,0.112348,
4906.686,0.1185002,
4904.758,0.1248379,
4902.829,0.1313553,
4900.900,0.1380105,
4898.971,0.1446474,
4897.043,0.1511278,
4895.114,0.1573731,
4893.185,0.1632751,
4891.256,0.1687278,
4889.328,0.1736305,
4887.399,0.1778527,
4885.470,0.1812912,
4883.542,0.1838805,
4881.613,0.1855611,
4879.684,0.1862493,
4877.755,0.1858811,
4875.827,0.1844983,
4873.898,0.1822103,
4871.969,0.1791201,
4870.040,0.1752911,
4868.112,0.1707699,
4866.183,0.1656286,
4864.254,0.1599873,
4862.326,0.154,
4860.397,0.1477872,
4858.468,0.1414398,
4856.539,0.1350275,
4854.611,0.1285708,
4852.682,0.1221245,
4850.753,0.1157953,
4848.824,0.1096623,
4846.896,0.1037868,
4844.967,0.09819496,
4843.038,0.09286376,
4841.109,0.08781797,
4839.181,0.08310271,
4837.252,0.07867706,
4835.323,0.07447956,
4833.395,0.07052448,
4831.466,0.06688321,
4829.537,0.06359337,
4827.608,0.06059935,
4825.680,0.05782029,
4823.751,0.05523283,
4821.822,0.05284951,
4819.893,0.05064327,
4817.965,0.04856946,
4816.036,0.04666959,
4814.107,0.04499952,
4812.179,0.0434973,
4810.250,0.04208107,
4808.321,0.04076176,
4806.392,0.039583,
4804.464,0.03853481,
4802.535,0.03755585,
4800.606,0.03660623,
4798.677,0.03569954,
4796.749,0.03490219,
4794.820,0.03426818,
4792.891,0.03372647,
4790.963,0.03318561,
4789.034,0.0326786,
4787.105,0.03225927,
4785.176,0.03192582,
4783.248,0.03167048,
4781.319,0.03146837,
4779.390,0.03127554,
4777.461,0.03108654,
4775.533,0.03092438,
4773.604,0.03080323,
4771.675,0.03073956,
4769.747,0.03075092,
4767.818,0.03083236,
4765.889,0.03096866,
4763.960,0.03116898,
4762.032,0.03143641,
4760.103,0.03174644,
4758.174,0.03210777,
4756.245,0.03252121,
4754.317,0.03291969,
4752.388,0.03329242,
4750.459,0.03374253,
4748.531,0.03434032,
4746.602,0.03505427,
4744.673,0.03585913,
4742.744,0.03676175,
4740.816,0.03771713,
4738.887,0.03869037,
4736.958,0.03973037,
4735.029,0.04091029,
4733.101,0.04227836,
4731.172,0.04379309,
4729.243,0.0453762,
4727.314,0.04706564,
4725.386,0.04895018,
4723.457,0.05105387,
4721.528,0.05334259,
4719.600,0.05579867,
4717.671,0.05849124,
4715.742,0.06147576,
4713.813,0.06472147,
4711.885,0.06822168,
4709.956,0.07203496,
4708.027,0.0762156,
4706.098,0.08076692,
4704.170,0.08566513,
4702.241,0.09089866,
4700.312,0.09641948,
4698.384,0.1021492,
4696.455,0.1080926,
4694.526,0.1142988,
4692.597,0.1207271,
4690.669,0.1272362,
4688.740,0.1336986,
4686.811,0.1400807,
4684.882,0.1463276,
4682.954,0.1523028,
4681.025,0.1578712,
4679.096,0.1629445,
4677.168,0.1674876,
4675.239,0.1714352,
4673.310,0.1746763,
4671.381,0.1771458,
4669.453,0.1787977,
4667.524,0.1795914,
4665.595,0.1794849,
4663.666,0.1783732,
4661.738,0.1761996,
4659.809,0.1730705,
4657.880,0.1691583,
4655.952,0.1645881,
4654.023,0.159412,
4652.094,0.1536914,
4650.165,0.1475426,
4648.237,0.1410685,
4646.308,0.13438,
4644.379,0.1276202,
4642.450,0.1208989,
4640.522,0.1142788,
4638.593,0.107827,
4636.664,0.1016084,
4634.736,0.0956588,
4632.807,0.09002165,
4630.878,0.08472678,
4628.949,0.07977807,
4627.021,0.07516548,
4625.092,0.07086127,
4623.163,0.06687418,
4621.234,0.06320442,
4619.306,0.05981601,
4617.377,0.05670264,
4615.448,0.0538452,
4613.519,0.05120529,
4611.591,0.04880216,
4609.662,0.04666536,
4607.733,0.04473032,
4605.805,0.04292329,
4603.876,0.04125717,
4601.947,0.03973633,
4600.018,0.03834418,
4598.090,0.03709623,
4596.161,0.03597314,
4594.232,0.03492339,
4592.303,0.03395106,
4590.375,0.03308722,
4588.446,0.03231163,
4586.517,0.03156716,
4584.589,0.03083996,
4582.660,0.03018229,
4580.731,0.02963797,
4578.802,0.02920154,
4576.874,0.02882526,
4574.945,0.02845419,
4573.016,0.02809804,
4571.087,0.02780028,
4569.159,0.0275495,
4567.230,0.02732466,
4565.301,0.02716595,
4563.373,0.02709023,
4561.444,0.02705373,
4559.515,0.0270378,
4557.586,0.02705703,
4555.658,0.02713014,
4553.729,0.02725454,
4551.800,0.02740494,
4549.871,0.02758535,
4547.943,0.02781871,
4546.014,0.02810552,
4544.085,0.02843656,
4542.157,0.02880325,
4540.228,0.02920564,
4538.299,0.02969021,
4536.370,0.03029519,
4534.442,0.03097552,
4532.513,0.0317007,
4530.584,0.03250749,
4528.655,0.03337826,
4526.727,0.03425236,
4524.798,0.03517563,
4522.869,0.03625239,
4520.940,0.03749404,
4519.012,0.0388521,
4517.083,0.04033036,
4515.154,0.0419465,
4513.226,0.0436898,
4511.297,0.0456092,
4509.368,0.04775691,
4507.439,0.05011326,
4505.511,0.05269079,
4503.582,0.05554324,
4501.653,0.05869597,
4499.724,0.06212819,
4497.796,0.06582503,
4495.867,0.06985495,
4493.938,0.07430421,
4492.010,0.07916103,
4490.081,0.08437075,
4488.152,0.08996211,
4486.223,0.09597921,
4484.295,0.1023664,
4482.366,0.1090387,
4480.437,0.1159657,
4478.508,0.1231485,
4476.580,0.1305256,
4474.651,0.1379281,
4472.722,0.1451696,
4470.794,0.1521035,
4468.865,0.1586097,
4466.936,0.164585,
4465.007,0.1698704,
4463.079,0.1742307,
4461.150,0.1774878,
4459.221,0.1795908,
4457.292,0.1805127,
4455.364,0.1801714,
4453.435,0.178543,
4451.506,0.1757532,
4449.578,0.1719709,
4447.649,0.16731,
4445.720,0.1618479,
4443.791,0.1556937,
4441.863,0.1490147,
4439.934,0.1419799,
4438.005,0.1347373,
4436.076,0.1274401,
4434.148,0.1202074,
4432.219,0.1130919,
4430.290,0.1061481,
4428.362,0.09946916,
4426.433,0.09311143,
4424.504,0.08706937,
4422.575,0.081366,
4420.647,0.07605383,
4418.718,0.07114594,
4416.789,0.06664722,
4414.860,0.06254818,
4412.932,0.05879613,
4411.003,0.05535604,
4409.074,0.05220808,
4407.145,0.04933191,
4405.217,0.04671883,
4403.288,0.04435256,
4401.359,0.04221959,
4399.431,0.04029532,
4397.502,0.038534,
4395.573,0.03690032,
4393.644,0.03540291,
4391.716,0.03406306,
4389.787,0.03284062,
4387.858,0.03171226,
4385.929,0.03070086,
4384.001,0.02978935,
4382.072,0.02895527,
4380.143,0.02817795,
4378.215,0.02744164,
4376.286,0.02678029,
4374.357,0.02622554,
4372.428,0.02575144,
4370.500,0.02529665,
4368.571,0.02483352,
4366.642,0.02440531,
4364.713,0.02408938,
4362.785,0.02388298,
4360.856,0.02367624,
4358.927,0.02343951,
4356.999,0.0232657,
4355.070,0.02317428,
4353.141,0.02308196,
4351.212,0.02298484,
4349.284,0.02298486,
4347.355,0.02308184,
4345.426,0.0231535,
4343.497,0.02317907,
4341.569,0.02324693,
4339.640,0.02339939,
4337.711,0.02362959,
4335.783,0.02391093,
4333.854,0.02421937,
4331.925,0.0245617,
4329.996,0.02492134,
4328.068,0.02528267,
4326.139,0.02568944,
4324.210,0.02617816,
4322.281,0.02675382,
4320.353,0.0274045,
4318.424,0.02809064,
4316.495,0.02880883,
4314.567,0.0296074,
4312.638,0.03051286,
4310.709,0.03150752,
4308.780,0.03257097,
4306.852,0.0337378,
4304.923,0.03506144,
4302.994,0.03654063,
4301.065,0.03814875,
4299.137,0.0398869,
4297.208,0.04178097,
4295.279,0.04383592,
4293.350,0.04605319,
4291.422,0.04849044,
4289.493,0.051193,
4287.564,0.0541177,
4285.636,0.05724111,
4283.707,0.06064281,
4281.778,0.06439346,
4279.849,0.06848729,
4277.921,0.07289014,
4275.992,0.07760836,
4274.063,0.0827124,
4272.134,0.08823404,
4270.206,0.09412634,
4268.277,0.1003112,
4266.348,0.1067322,
4264.420,0.1133994,
4262.491,0.120263,
4260.562,0.1271666,
4258.633,0.1339878,
4256.705,0.1406001,
4254.776,0.1467878,
4252.847,0.1523526,
4250.918,0.1571711,
4248.990,0.1610405,
4247.061,0.1636888,
4245.132,0.1650158,
4243.204,0.1650557,
4241.275,0.1638253,
4239.346,0.161388,
4237.417,0.1578473,
4235.489,0.1532906,
4233.560,0.1478529,
4231.631,0.1417391,
4229.702,0.1351638,
4227.774,0.1283105,
4225.845,0.1213321,
4223.916,0.1143599,
4221.988,0.1074857,
4220.059,0.1007841,
4218.130,0.094355,
4216.201,0.08827211,
4214.273,0.0825277,
4212.344,0.07710366,
4210.415,0.07203084,
4208.486,0.06732734,
4206.558,0.06297855,
4204.629,0.05897553,
4202.700,0.05528699,
4200.772,0.05186522,
4198.843,0.04871234,
4196.914,0.04584974,
4194.985,0.04325606,
4193.057,0.04091155,
4191.128,0.03879837,
4189.199,0.03686719,
4187.270,0.03510119,
4185.342,0.0334985,
4183.413,0.03202895,
4181.484,0.03069349,
4179.555,0.02950844,
4177.627,0.02845039,
4175.698,0.02748792,
4173.769,0.02661397,
4171.841,0.02580312,
4169.912,0.0250039,
4167.983,0.02423754,
4166.054,0.02359994,
4164.126,0.02308368,
4162.197,0.02258553,
4160.268,0.02211136,
4158.339,0.02170782,
4156.411,0.02134141,
4154.482,0.02100671,
4152.553,0.02072934,
4150.625,0.02047882,
4148.696,0.02021627,
4146.767,0.01997573,
4144.838,0.0198023,
4142.910,0.01968668,
4140.981,0.01961773,
4139.052,0.01959036,
4137.123,0.01958658,
4135.195,0.01958581,
4133.266,0.01958776,
4131.337,0.01962711,
4129.409,0.01972981,
4127.480,0.01987605,
4125.551,0.02002654,
4123.622,0.02017817,
4121.694,0.02035871,
4119.765,0.02058365,
4117.836,0.0208593,
4115.907,0.02118827,
4113.979,0.02156741,
4112.050,0.02200369,
4110.121,0.02249735,
4108.193,0.02303395,
4106.264,0.02362358,
4104.335,0.02426642,
4102.406,0.02493996,
4100.478,0.02568116,
4098.549,0.02655064,
4096.620,0.02755076,
4094.691,0.02864382,
4092.763,0.02979498,
4090.834,0.03101934,
4088.905,0.03238139,
4086.977,0.03390056,
4085.048,0.03554179,
4083.119,0.03734567,
4081.190,0.03940751,
4079.262,0.04172705,
4077.333,0.04425872,
4075.404,0.04703364,
4073.475,0.05012093,
4071.547,0.05356746,
4069.618,0.05741347,
4067.689,0.061701,
4065.760,0.06644125,
4063.832,0.07161309,
4061.903,0.07719647,
4059.974,0.08319216,
4058.046,0.08959892,
4056.117,0.09636578,
4054.188,0.1034137,
4052.259,0.1106443,
4050.331,0.1179361,
4048.402,0.1251588,
4046.473,0.1321356,
4044.544,0.1387148,
4042.616,0.1447903,
4040.687,0.1501482,
4038.758,0.1545323,
4036.830,0.1578009,
4034.901,0.1598393,
4032.972,0.1605073,
4031.043,0.1597655,
4029.115,0.1576585,
4027.186,0.1542418,
4025.257,0.1496514,
4023.328,0.1441019,
4021.400,0.1378203,
4019.471,0.1310568,
4017.542,0.1240357,
4015.614,0.1168853,
4013.685,0.1097058,
4011.756,0.102606,
4009.827,0.09568546,
4007.899,0.08905651,
4005.970,0.08276616,
4004.041,0.07678917,
4002.112,0.07115608,
4000.184,0.0659289,
3998.255,0.06111621,
3996.326,0.05669747,
3994.398,0.05266161,
3992.469,0.04899354,
3990.540,0.04565995,
3988.611,0.04264576,
3986.683,0.03994641,
3984.754,0.0375177,
3982.825,0.03532595,
3980.896,0.03335809,
3978.968,0.03159472,
3977.039,0.03003474,
3975.110,0.02863973,
3973.181,0.02734142,
3971.253,0.02612031,
3969.324,0.02501924,
3967.395,0.02406391,
3965.467,0.02319227,
3963.538,0.0223704,
3961.609,0.02162851,
3959.680,0.02096445,
3957.752,0.0203523,
3955.823,0.01978562,
3953.894,0.01928881,
3951.965,0.01886744,
3950.037,0.01846486,
3948.108,0.0180776,
3946.179,0.01775427,
3944.251,0.01745952,
3942.322,0.01719497,
3940.393,0.01701348,
3938.464,0.0168756,
3936.536,0.0167022,
3934.607,0.01647956,
3932.678,0.01631295,
3930.749,0.01627509,
3928.821,0.01629624,
3926.892,0.01629143,
3924.963,0.01625808,
3923.035,0.01624194,
3921.106,0.01624894,
3919.177,0.01629058,
3917.248,0.0164072,
3915.320,0.01658548,
3913.391,0.01676554,
3911.462,0.01695976,
3909.533,0.01720369,
3907.605,0.01739194,
3905.676,0.01745446,
3903.747,0.01756139,
3901.819,0.01790685,
3899.890,0.01845914,
3897.961,0.01910929,
3896.032,0.01973067,
3894.104,0.02020068,
3892.175,0.02067612,
3890.246,0.02134616,
3888.317,0.02205251,
3886.389,0.02273354,
3884.460,0.02363768,
3882.531,0.02474444,
3880.603,0.02596121,
3878.674,0.02737467,
3876.745,0.0287735,
3874.816,0.03004695,
3872.888,0.03133111,
3870.959,0.03283101,
3869.030,0.03490557,
3867.101,0.0374099,
3865.173,0.03998635,
3863.244,0.04280711,
3861.315,0.04609222,
3859.386,0.0495706,
3857.458,0.05241977,
3855.529,0.05450325,
3853.600,0.05797313,
3851.672,0.06459416,
3849.743,0.07262845,
3847.814,0.08009536,
3845.885,0.08691896,
3843.957,0.09378463,
3842.028,0.1007372,
3840.099,0.1073151,
3838.170,0.1145536,
3836.242,0.1235545,
3834.313,0.1328755,
3832.384,0.1411205,
3830.456,0.1482488,
3828.527,0.1538072,
3826.598,0.1573582,
3824.669,0.1581303,
3822.741,0.1559928,
3820.812,0.1534588,
3818.883,0.1508219,
3816.954,0.1464263,
3815.026,0.1420943,
3813.097,0.1382283,
3811.168,0.1320766,
3809.240,0.1232032,
3807.311,0.1139095,
3805.382,0.1057827,
3803.453,0.09761748,
3801.525,0.08937862,
3799.596,0.08276523,
3797.667,0.07698443,
3795.738,0.07112103,
3793.810,0.06562481,
3791.881,0.06042263,
3789.952,0.05541485,
3788.024,0.05080326,
3786.095,0.04670756,
3784.166,0.04312816,
3782.237,0.03991152,
3780.309,0.03698521,
3778.380,0.03453073,
3776.451,0.0324764,
3774.522,0.03049207,
3772.594,0.02849692,
3770.665,0.02668587,
3768.736,0.02525694,
3766.808,0.02406158,
3764.879,0.02292749,
3762.950,0.0218467,
3761.021,0.02076605,
3759.093,0.01979224,
3757.164,0.01902794,
3755.235,0.01822359,
3753.306,0.01716041,
3751.378,0.01618263,
3749.449,0.01567784,
3747.520,0.01531123,
3745.591,0.01477929,
3743.663,0.01449498,
3741.734,0.01455777,
3739.805,0.01440581,
3737.877,0.01393161,
3735.948,0.01347815,
3734.019,0.01323828,
3732.090,0.01320123,
3730.162,0.01321869,
3728.233,0.01312879,
3726.304,0.01294938,
3724.375,0.01283658,
3722.447,0.01281564,
3720.518,0.01284224,
3718.589,0.01288856,
3716.661,0.01286328,
3714.732,0.01270918,
3712.803,0.01251169,
3710.874,0.01248109,
3708.946,0.01266584,
3707.017,0.01292782,
3705.088,0.0131259,
3703.159,0.01321358,
3701.231,0.01334265,
3699.302,0.01359419,
3697.373,0.01386856,
3695.445,0.01408608,
3693.516,0.01422675,
3691.587,0.01429322,
3689.658,0.01441396,
3687.730,0.01483156,
3685.801,0.01548966,
3683.872,0.01612076,
3681.943,0.01665669,
3680.015,0.01709607,
3678.086,0.01737302,
3676.157,0.0177245,
3674.229,0.01847984,
3672.300,0.01937244,
3670.371,0.02030444,
3668.442,0.02162537,
3666.514,0.02318539,
3664.585,0.02465727,
3662.656,0.02609059,
3660.727,0.02757369,
3658.799,0.02903898,
3656.870,0.03067722,
3654.941,0.03272038,
3653.013,0.03474214,
3651.084,0.03655999,
3649.155,0.03900822,
3647.226,0.04265794,
3645.298,0.04692955,
3643.369,0.05115495,
3641.440,0.05531837,
3639.511,0.05962639,
3637.583,0.06405458,
3635.654,0.06851339,
3633.725,0.07282323,
3631.796,0.07639025,
3629.868,0.07975567,
3627.939,0.08471532,
3626.010,0.09073283,
3624.082,0.09548073,
3622.153,0.09819593,
3620.224,0.09984194,
3618.295,0.1016196,
3616.367,0.103177,
3614.438,0.10345,
3612.509,0.102503,
3610.580,0.100757,
3608.652,0.09861096,
3606.723,0.09639297,
3604.794,0.09361852,
3602.866,0.08980586,
3600.937,0.08528416,
3599.008,0.08051471,
3597.079,0.07561342,
3595.151,0.07070244,
3593.222,0.06596636,
3591.293,0.06125223,
3589.364,0.0564361,
3587.436,0.05200892,
3585.507,0.04834787,
3583.578,0.0450898,
3581.650,0.04189397,
3579.721,0.03882438,
3577.792,0.03598062,
3575.863,0.03338525,
3573.935,0.03104683,
3572.006,0.02890556,
3570.077,0.02685568,
3568.148,0.02496856,
3566.220,0.02344287,
3564.291,0.02224507,
3562.362,0.02115114,
3560.434,0.02007267,
3558.505,0.01906713,
3556.576,0.01817876,
3554.647,0.01739428,
3552.719,0.01669067,
3550.790,0.01603754,
3548.861,0.01537209,
3546.932,0.0147173,
3545.004,0.01416948,
3543.075,0.01372965,
3541.146,0.0133256,
3539.217,0.01291511,
3537.289,0.01251988,
3535.360,0.01217671,
3533.431,0.01187886,
3531.503,0.01159856,
3529.574,0.01133675,
3527.645,0.01110722,
3525.716,0.01089939,
3523.788,0.01072721,
3521.859,0.01060416,
3519.930,0.01047826,
3518.001,0.01032405,
3516.073,0.01018438,
3514.144,0.01007987,
3512.215,0.01000501,
3510.287,0.009962425,
3508.358,0.009939771,
3506.429,0.00992301,
3504.500,0.009909478,
3502.572,0.009910488,
3500.643,0.009950129,
3498.714,0.01002055,
3496.785,0.01008521,
3494.857,0.0101401,
3492.928,0.01021235,
3490.999,0.01030381,
3489.071,0.01042067,
3487.142,0.01058839,
3485.213,0.01078396,
3483.284,0.01097612,
3481.356,0.01118574,
3479.427,0.01143542,
3477.498,0.01171706,
3475.569,0.01203174,
3473.641,0.0123961,
3471.712,0.01280248,
3469.783,0.01323033,
3467.855,0.01369019,
3465.926,0.01419351,
3463.997,0.01472994,
3462.068,0.01533922,
3460.140,0.01605787,
3458.211,0.01683665,
3456.282,0.01765466,
3454.353,0.01857216,
3452.425,0.01963301,
3450.496,0.02081572,
3448.567,0.02211367,
3446.639,0.02358231,
3444.710,0.02524431,
3442.781,0.02708903,
3440.852,0.02915588,
3438.924,0.03149568,
3436.995,0.03409548,
3435.066,0.03690575,
3433.137,0.03993128,
3431.209,0.04319714,
3429.280,0.04665381,
3427.351,0.05020598,
3425.422,0.05372512,
3423.494,0.05703484,
3421.565,0.05999732,
3419.636,0.06254035,
3417.708,0.06457055,
3415.779,0.06599754,
3413.850,0.0668591,
3411.921,0.06733276,
3409.993,0.06766252,
3408.064,0.06810115,
3406.135,0.06884604,
3404.206,0.07000351,
3402.278,0.07157695,
3400.349,0.07341578,
3398.420,0.0752284,
3396.492,0.0766855,
3394.563,0.07747022,
3392.634,0.07733982,
3390.705,0.07620576,
3388.777,0.07410242,
3386.848,0.07115335,
3384.919,0.06756138,
3382.990,0.06353773,
3381.062,0.05926051,
3379.133,0.0548899,
3377.204,0.05056184,
3375.276,0.04638372,
3373.347,0.04245193,
3371.418,0.0388255,
3369.489,0.035518,
3367.561,0.03254143,
3365.632,0.02990522,
3363.703,0.0275867,
3361.774,0.02552313,
3359.846,0.02364865,
3357.917,0.02195469,
3355.988,0.02048368,
3354.060,0.0192239,
3352.131,0.01808143,
3350.202,0.01700508,
3348.273,0.01602441,
3346.345,0.01517162,
3344.416,0.01443831,
3342.487,0.01378384,
3340.558,0.0131751,
3338.630,0.0126182,
3336.701,0.01212663,
3334.772,0.0116789,
3332.844,0.011262,
3330.915,0.01088225,
3328.986,0.01053756,
3327.057,0.0102406,
3325.129,0.00999664,
3323.200,0.009790964,
3321.271,0.009603721,
3319.342,0.009410864,
3317.414,0.009217794,
3315.485,0.00905484,
3313.556,0.008929077,
3311.627,0.008816839,
3309.699,0.008701922,
3307.770,0.0085967,
3305.841,0.008525019,
3303.913,0.00849681,
3301.984,0.008483408,
3300.055,0.008451894,
3298.126,0.008420439,
3296.198,0.00841595,
3294.269,0.008423106,
3292.340,0.008429805,
3290.411,0.008452773,
3288.483,0.008503489,
3286.554,0.008568111,
3284.625,0.00861202,
3282.697,0.008645337,
3280.768,0.008733639,
3278.839,0.008886836,
3276.910,0.009056557,
3274.982,0.009223253,
3273.053,0.009398036,
3271.124,0.00959667,
3269.195,0.009820251,
3267.267,0.01005453,
3265.338,0.01030951,
3263.409,0.01062668,
3261.481,0.01102041,
3259.552,0.01144173,
3257.623,0.01185022,
3255.694,0.01227868,
3253.766,0.01278346,
3251.837,0.0133906,
3249.908,0.01407127,
3247.979,0.01477922,
3246.051,0.01554125,
3244.122,0.01641858,
3242.193,0.01743653,
3240.265,0.01860261,
3238.336,0.01991889,
3236.407,0.02140845,
3234.478,0.02310759,
3232.550,0.02502112,
3230.621,0.02717015,
3228.692,0.02964276,
3226.763,0.03251528,
3224.835,0.03580805,
3222.906,0.0395596,
3220.977,0.04382097,
3219.049,0.04861139,
3217.120,0.05393818,
3215.191,0.05979319,
3213.262,0.06613181,
3211.334,0.07284235,
3209.405,0.07972357,
3207.476,0.08651073,
3205.547,0.09290044,
3203.619,0.09853946,
3201.690,0.1030379,
3199.761,0.1060471,
3197.832,0.1073466,
3195.904,0.1068859,
3193.975,0.1047457,
3192.046,0.1010902,
3190.118,0.09618162,
3188.189,0.09034974,
3186.260,0.08391038,
3184.331,0.07716388,
3182.403,0.07039696,
3180.474,0.0638112,
3178.545,0.05753734,
3176.616,0.05169279,
3174.688,0.04634717,
3172.759,0.04152879,
3170.830,0.03725411,
3168.902,0.03350226,
3166.973,0.03021968,
3165.044,0.02735346,
3163.115,0.02486112,
3161.187,0.02269712,
3159.258,0.02081868,
3157.329,0.01918148,
3155.400,0.0177332,
3153.472,0.01645388,
3151.543,0.01534492,
3149.614,0.0143762,
3147.686,0.01350355,
3145.757,0.01270754,
3143.828,0.01198582,
3141.899,0.01134228,
3139.971,0.01077804,
3138.042,0.01027381,
3136.113,0.009811305,
3134.184,0.009396845,
3132.256,0.009043644,
3130.327,0.008744505,
3128.398,0.008474788,
3126.470,0.008222577,
3124.541,0.007985051,
3122.612,0.00776513,
3120.683,0.007572679,
3118.755,0.007396316,
3116.826,0.007226533,
3114.897,0.007080253,
3112.968,0.006961938,
3111.040,0.006847135,
3109.111,0.006717312,
3107.182,0.006601332,
3105.253,0.00653856,
3103.325,0.006526099,
3101.396,0.006543007,
3099.467,0.006560536,
3097.539,0.006562912,
3095.610,0.006566738,
3093.681,0.006575623,
3091.752,0.00659561,
3089.824,0.006656109,
3087.895,0.006750482,
3085.966,0.006844664,
3084.037,0.006938012,
3082.109,0.007050399,
3080.180,0.007189047,
3078.251,0.007354502,
3076.323,0.007548082,
3074.394,0.007769529,
3072.465,0.008009039,
3070.536,0.008249921,
3068.608,0.008504828,
3066.679,0.008817959,
3064.750,0.009216582,
3062.821,0.009685721,
3060.893,0.0101929,
3058.964,0.01073932,
3057.035,0.01135183,
3055.107,0.01206114,
3053.178,0.01291406,
3051.249,0.01392545,
3049.320,0.0150741,
3047.392,0.01639412,
3045.463,0.01798098,
3043.534,0.01990877,
3041.605,0.02220716,
3039.677,0.02490803,
3037.748,0.02806787,
3035.819,0.03174968,
3033.891,0.03597349,
3031.962,0.04069525,
3030.033,0.0458336,
3028.104,0.05121997,
3026.176,0.05653662,
3024.247,0.06135021,
3022.318,0.06514788,
3020.389,0.06739236,
3018.461,0.06767718,
3016.532,0.0658711,
3014.603,0.06214606,
3012.675,0.05691972,
3010.746,0.05074805,
3008.817,0.04421636,
3006.888,0.03782659,
3004.960,0.03192326,
3003.031,0.02671966,
3001.102,0.02230898,
2999.173,0.01867687,
2997.245,0.01574322,
2995.316,0.01337311,
2993.387,0.0114458,
2991.458,0.009901962,
2989.530,0.008675102,
2987.601,0.007664586,
2985.672,0.006802166,
2983.744,0.006072315,
2981.815,0.005456147,
2979.886,0.004920682,
2977.957,0.004430873,
2976.029,0.003951794,
2974.100,0.00347814,
2972.171,0.003022173,
2970.242,0.002584008,
2968.314,0.002159407,
2966.385,0.001753748,
2964.456,0.001387367,
2962.528,0.001080729,
2960.599,0.0008364584,
2958.670,0.0006442799,
2956.741,0.0005016061,
2954.813,0.0004115739,
2952.884,0.0003510955,
2950.955,0.0002903129,
2949.026,0.0002443881,
2947.098,0.0002197627,
2945.169,0.0002035969,
2943.240,0.0001846563,
2941.312,0.0001540331,
2939.383,0.0001050556,
2937.454,7.501967E-5,
2935.525,8.78818E-5,
2933.597,0.000117394,
2931.668,0.0001398538,
2929.739,0.0001643873,
2927.810,0.0002226184,
2925.882,0.0003109183,
2923.953,0.0004327046,
2922.024,0.0006221251,
2920.096,0.000878263,
2918.167,0.001180126,
2916.238,0.001511657,
2914.309,0.001860677,
2912.381,0.002228247,
2910.452,0.002589973,
2908.523,0.002899435,
2906.594,0.003144092,
2904.666,0.003359762,
2902.737,0.003581546,
2900.808,0.003779531,
2898.880,0.003914899,
2896.951,0.00399538,
2895.022,0.004018006,
2893.093,0.003974475,
2891.165,0.003887059,
2889.236,0.003770657,
2887.307,0.003605356,
2885.378,0.003380229,
2883.450,0.003131523,
2881.521,0.002892443,
2879.592,0.002654509,
2877.663,0.002396241,
2875.735,0.002110981,
2873.806,0.001814197,
2871.877,0.001522361,
2869.949,0.001241794,
2868.020,0.000993646,
2866.091,0.0008052119,
2864.162,0.0007021616,
2862.234,0.0007154926,
2860.305,0.0008629767,
2858.376,0.001154692,
2856.447,0.001604509,
2854.519,0.002249059,
2852.590,0.003088385,
2850.661,0.00401381,
2848.733,0.004838272,
2846.804,0.005389875,
2844.875,0.00560833,
2842.946,0.005562454,
2841.018,0.00536985,
2839.089,0.005124539,
2837.160,0.004880616,
2835.231,0.004670186,
2833.303,0.004506151,
2831.374,0.004373506,
2829.445,0.004261615,
2827.517,0.004184022,
2825.588,0.00414738,
2823.659,0.004142185,
2821.730,0.004160477,
2819.802,0.004192075,
2817.873,0.004219861,
2815.944,0.004238904,
2814.015,0.004271708,
2812.087,0.004329788,
2810.158,0.004387063,
2808.229,0.004441713,
2806.301,0.004521126,
2804.372,0.00462381,
2802.443,0.004740457,
2800.514,0.004875717,
2798.586,0.005026609,
2796.657,0.005185973,
2794.728,0.005361617,
2792.799,0.005576435,
2790.871,0.00584456,
2788.942,0.006157811,
2787.013,0.00650729,
2785.085,0.006903692,
2783.156,0.007356295,
2781.227,0.007853969,
2779.298,0.008395098,
2777.370,0.009005804,
2775.441,0.00973107,
2773.512,0.01060503,
2771.583,0.01162763,
2769.655,0.01281132,
2767.726,0.01418908,
2765.797,0.01578072,
2763.868,0.01763194,
2761.940,0.01983672,
2760.011,0.02251896,
2758.082,0.02581772,
2756.154,0.02985773,
2754.225,0.03473179,
2752.296,0.04047332,
2750.367,0.04700481,
2748.439,0.05410758,
2746.510,0.06140414,
2744.581,0.06836381,
2742.652,0.07437351,
2740.724,0.07880728,
2738.795,0.08112852,
2736.866,0.08110286,
2734.938,0.07890407,
2733.009,0.07496947,
2731.080,0.06979316,
2729.151,0.06382322,
2727.223,0.05743467,
2725.294,0.05094285,
2723.365,0.04465096,
2721.436,0.03881615,
2719.508,0.0335858,
2717.579,0.02904226,
2715.650,0.02521382,
2713.722,0.02202027,
2711.793,0.01933412,
2709.864,0.01707326,
2707.935,0.01517663,
2706.007,0.01357901,
2704.078,0.0122314,
2702.149,0.01110147,
2700.220,0.01015039,
2698.292,0.009320141,
2696.363,0.008580249,
2694.434,0.007933412,
2692.506,0.007369864,
2690.577,0.006883337,
2688.648,0.006478183,
2686.719,0.006134534,
2684.791,0.005811931,
2682.862,0.005503091,
2680.933,0.005223497,
2679.004,0.004975719,
2677.076,0.004774938,
2675.147,0.004622608,
2673.218,0.00449443,
2671.290,0.004376649,
2669.361,0.004275003,
2667.432,0.004203522,
2665.503,0.004135361,
2663.575,0.00403144,
2661.646,0.003915542,
2659.717,0.003829699,
2657.788,0.003767241,
2655.860,0.003693237,
2653.931,0.0036141,
2652.002,0.003563753,
2650.073,0.003533667,
2648.145,0.003503331,
2646.216,0.003484125,
2644.287,0.00346933,
2642.359,0.00343561,
2640.430,0.003404648,
2638.501,0.003408923,
2636.572,0.003429039,
2634.644,0.003426405,
2632.715,0.003408884,
2630.786,0.003416443,
2628.857,0.003454296,
2626.929,0.003495625,
2625.000,0.003534676,
2623.071,0.00358717,
2621.143,0.003654303,
2619.214,0.003713511,
2617.285,0.003766238,
2615.356,0.003839256,
2613.428,0.003923643,
2611.499,0.004014011,
2609.570,0.004126531,
2607.641,0.004249233,
2605.713,0.004371428,
2603.784,0.004492663,
2601.855,0.004629347,
2599.927,0.004812046,
2597.998,0.005043103,
2596.069,0.005312107,
2594.140,0.00559717,
2592.212,0.005887242,
2590.283,0.006226216,
2588.354,0.006624692,
2586.425,0.007022145,
2584.497,0.007417552,
2582.568,0.007905909,
2580.639,0.008534457,
2578.711,0.009265415,
2576.782,0.01008106,
2574.853,0.01100483,
2572.924,0.01206837,
2570.996,0.01331333,
2569.067,0.01478595,
2567.138,0.01652906,
2565.209,0.01861373,
2563.281,0.02113609,
2561.352,0.02417056,
2559.423,0.02779387,
2557.494,0.03210237,
2555.566,0.03714814,
2553.637,0.04286587,
2551.708,0.04904523,
2549.780,0.05536361,
2547.851,0.06141187,
2545.922,0.06670056,
2543.993,0.07072728,
2542.065,0.07309876,
2540.136,0.07360943,
2538.207,0.07225719,
2536.278,0.06925155,
2534.350,0.06496831,
2532.421,0.059847,
2530.492,0.05429882,
2528.564,0.0486372,
2526.635,0.04309647,
2524.706,0.03787755,
2522.777,0.0331138,
2520.849,0.02886885,
2518.920,0.02515997,
2516.991,0.02195225,
2515.062,0.01919061,
2513.134,0.01682533,
2511.205,0.01482056,
2509.276,0.01314163,
2507.348,0.01172518,
2505.419,0.01052416,
2503.490,0.009531607,
2501.561,0.008715867,
2499.633,0.008002737,
2497.704,0.007343763,
2495.775,0.006756522,
2493.846,0.006260372,
2491.918,0.005833257,
2489.989,0.005462101,
2488.060,0.005156437,
2486.132,0.004907602,
2484.203,0.004682873,
2482.274,0.004453247,
2480.345,0.004216633,
2478.417,0.003990884,
2476.488,0.003798975,
2474.559,0.003649502,
2472.630,0.003519005,
2470.702,0.003384793,
2468.773,0.003267028,
2466.844,0.00318771,
2464.916,0.00312399,
2462.987,0.003044976,
2461.058,0.002949048,
2459.129,0.002860239,
2457.201,0.00279586,
2455.272,0.00273532,
2453.343,0.002673633,
2451.414,0.002641513,
2449.486,0.002635978,
2447.557,0.002622062,
2445.628,0.002594579,
2443.699,0.002577311,
2441.771,0.00256964,
2439.842,0.002547408,
2437.913,0.002514028,
2435.985,0.002497189,
2434.056,0.002505507,
2432.127,0.00252016,
2430.198,0.002533069,
2428.270,0.002552039,
2426.341,0.00256663,
2424.412,0.002572723,
2422.483,0.002592623,
2420.555,0.002634308,
2418.626,0.002675922,
2416.697,0.002709487,
2414.769,0.002756411,
2412.840,0.002816888,
2410.911,0.002872904,
2408.982,0.002929644,
2407.054,0.0029974,
2405.125,0.003074578,
2403.196,0.003166797,
2401.267,0.003278457,
2399.339,0.003401337,
2397.410,0.003534126,
2395.481,0.003684555,
2393.553,0.003855137,
2391.624,0.00403108,
2389.695,0.004193805,
2387.766,0.004368893,
2385.838,0.004589349,
2383.909,0.00483952,
2381.980,0.005113048,
2380.051,0.005415827,
2378.123,0.005714314,
2376.194,0.005991047,
2374.265,0.006283227,
2372.337,0.006641103,
2370.408,0.007089389,
2368.479,0.007621451,
2366.550,0.008245162,
2364.622,0.009004622,
2362.693,0.009957305,
2360.764,0.01118314,
2358.835,0.01277655,
2356.907,0.01485422,
2354.978,0.01761115,
2353.049,0.02125654,
2351.121,0.02569124,
2349.192,0.03031108,
2347.263,0.03455462,
2345.334,0.03844216,
2343.406,0.04214438,
2341.477,0.04548922,
2339.548,0.04819506,
2337.619,0.05010894,
2335.691,0.05107173,
2333.762,0.05083393,
2331.833,0.0493133,
2329.904,0.04679155,
2327.976,0.04366066,
2326.047,0.04015805,
2324.118,0.03640307,
2322.190,0.03250234,
2320.261,0.02861348,
2318.332,0.02493468,
2316.403,0.02160746,
2314.475,0.01868536,
2312.546,0.01618811,
2310.617,0.01410017,
2308.688,0.01235331,
2306.760,0.01088181,
2304.831,0.009650697,
2302.902,0.008620686,
2300.974,0.007761896,
2299.045,0.007054991,
2297.116,0.006451121,
2295.187,0.005915413,
2293.259,0.005456435,
2291.330,0.005074298,
2289.401,0.004736078,
2287.472,0.004410058,
2285.544,0.004110335,
2283.615,0.003863918,
2281.686,0.003652916,
2279.758,0.003448737,
2277.829,0.003260585,
2275.900,0.003103467,
2273.971,0.002965789,
2272.043,0.002838177,
2270.114,0.002723073,
2268.185,0.002609173,
2266.256,0.002497997,
2264.328,0.002422246,
2262.399,0.002376459,
2260.470,0.002316422,
2258.542,0.002237457,
2256.613,0.002161108,
2254.684,0.00210272,
2252.755,0.002065545,
2250.827,0.00202755,
2248.898,0.001978155,
2246.969,0.001933236,
2245.040,0.001899516,
2243.112,0.001872189,
2241.183,0.00184933,
2239.254,0.001829486,
2237.326,0.001815096,
2235.397,0.00180667,
2233.468,0.001802385,
2231.539,0.001814234,
2229.611,0.001836654,
2227.682,0.001839417,
2225.753,0.001821809,
2223.824,0.001808712,
2221.896,0.001816172,
2219.967,0.001836901,
2218.038,0.0018587,
2216.109,0.001886216,
2214.181,0.001916811,
2212.252,0.001934022,
2210.323,0.001945513,
2208.395,0.001970296,
2206.466,0.00200562,
2204.537,0.002049202,
2202.608,0.002106229,
2200.680,0.002176319,
2198.751,0.002247151,
2196.822,0.002298774,
2194.893,0.002346327,
2192.965,0.002424994,
2191.036,0.002531927,
2189.107,0.002641354,
2187.179,0.002743224,
2185.250,0.002852256,
2183.321,0.002988246,
2181.392,0.003151608,
2179.464,0.003327938,
2177.535,0.00349852,
2175.606,0.003665711,
2173.677,0.003863183,
2171.749,0.00411391,
2169.820,0.004412381,
2167.891,0.004755516,
2165.963,0.005156072,
2164.034,0.005640933,
2162.105,0.006226392,
2160.176,0.006909954,
2158.248,0.007720735,
2156.319,0.008708172,
2154.390,0.009908122,
2152.461,0.01137666,
2150.533,0.01318081,
2148.604,0.01538447,
2146.675,0.01808401,
2144.747,0.02137467,
2142.818,0.02525271,
2140.889,0.02957945,
2138.960,0.03412981,
2137.032,0.03862223,
2135.103,0.04271135,
2133.174,0.04602919,
2131.245,0.048259,
2129.317,0.0491605,
2127.388,0.04856132,
2125.459,0.04642792,
2123.530,0.04298553,
2121.602,0.03868337,
2119.673,0.0340091,
2117.744,0.02935415,
2115.816,0.02500276,
2113.887,0.02114475,
2111.958,0.01784831,
2110.029,0.01507532,
2108.101,0.01276589,
2106.172,0.01088507,
2104.243,0.009388717,
2102.314,0.008199538,
2100.386,0.007236023,
2098.457,0.006439229,
2096.528,0.005776663,
2094.600,0.005225707,
2092.671,0.004759802,
2090.742,0.004356329,
2088.813,0.004002187,
2086.885,0.003698514,
2084.956,0.003438861,
2083.027,0.003198922,
2081.098,0.002972273,
2079.170,0.002761357,
2077.241,0.002566425,
2075.312,0.002397886,
2073.384,0.00226639,
2071.455,0.00217032,
2069.526,0.002087057,
2067.597,0.002001788,
2065.669,0.001923032,
2063.740,0.001842863,
2061.811,0.001758993,
2059.882,0.00169541,
2057.954,0.0016538,
2056.025,0.001618233,
2054.096,0.001582356,
2052.168,0.001532142,
2050.239,0.001465696,
2048.310,0.001411899,
2046.381,0.001389506,
2044.453,0.001387618,
2042.524,0.001381929,
2040.595,0.001362006,
2038.666,0.001334398,
2036.738,0.001309873,
2034.809,0.001296413,
2032.880,0.001284369,
2030.952,0.001271736,
2029.023,0.001271246,
2027.094,0.001276769,
2025.165,0.001277609,
2023.237,0.001269445,
2021.308,0.001255339,
2019.379,0.001240502,
2017.450,0.001231082,
2015.522,0.001246468,
2013.593,0.001279603,
2011.664,0.001295617,
2009.735,0.001300896,
2007.807,0.0013248,
2005.878,0.001357126,
2003.949,0.001378358,
2002.021,0.001402755,
2000.092,0.001445486,
1998.163,0.001487788,
1996.234,0.001511715,
1994.306,0.001546003,
1992.377,0.001616391,
1990.448,0.001698531,
1988.519,0.001774235,
1986.591,0.001851523,
1984.662,0.001926523,
1982.733,0.001990559,
1980.805,0.002057148,
1978.876,0.002146183,
1976.947,0.00225424,
1975.018,0.002380859,
1973.090,0.002540195,
1971.161,0.002721782,
1969.232,0.002913393,
1967.303,0.003132286,
1965.375,0.003386632,
1963.446,0.003676339,
1961.517,0.004020943,
1959.589,0.004439538,
1957.660,0.004948966,
1955.731,0.005573231,
1953.802,0.00631868,
1951.874,0.007197632,
1949.945,0.008258213,
1948.016,0.009539893,
1946.087,0.01108421,
1944.159,0.01300367,
1942.230,0.01546783,
1940.301,0.01859421,
1938.373,0.02237401,
1936.444,0.02666219,
1934.515,0.03111145,
1932.586,0.03513773,
1930.658,0.03804797,
1928.729,0.03927344,
1926.800,0.03857321,
1924.871,0.03613056,
1922.943,0.0324783,
1921.014,0.02821119,
1919.085,0.02382031,
1917.157,0.01977455,
1915.228,0.01635035,
1913.299,0.01351345,
1911.370,0.01118515,
1909.442,0.009324284,
1907.513,0.007859192,
1905.584,0.006703419,
1903.655,0.005778158,
1901.727,0.0050276,
1899.798,0.004413429,
1897.869,0.003908818,
1895.940,0.003488471,
1894.012,0.003128693,
1892.083,0.002820679,
1890.154,0.002568966,
1888.226,0.002364726,
1886.297,0.002182794,
1884.368,0.002018817,
1882.439,0.001879737,
1880.511,0.001760354,
1878.582,0.001656133,
1876.653,0.001574568,
1874.724,0.001508469,
1872.796,0.001426905,
1870.867,0.001331159,
1868.938,0.001256288,
1867.010,0.001211273,
1865.081,0.001173395,
1863.152,0.001135355,
1861.223,0.001111433,
1859.295,0.00109631,
1857.366,0.001071277,
1855.437,0.001038959,
1853.508,0.001018408,
1851.580,0.001005095,
1849.651,0.0009723044,
1847.722,0.0009246528,
1845.794,0.000893331,
1843.865,0.0008877136,
1841.936,0.0008907273,
1840.007,0.0008913022,
1838.079,0.0008912268,
1836.150,0.0008853941,
1834.221,0.0008718052,
1832.292,0.0008580598,
1830.364,0.0008545946,
1828.435,0.0008644253,
1826.506,0.0008733758,
1824.578,0.0008850229,
1822.649,0.0009215986,
1820.720,0.000968859,
1818.791,0.001002499,
1816.863,0.001026136,
1814.934,0.00103732,
1813.005,0.001039467,
1811.076,0.001052688,
1809.148,0.00107335,
1807.219,0.001089989,
1805.290,0.001114956,
1803.362,0.001161176,
1801.433,0.001230387,
1799.504,0.001330558,
1797.575,0.001462786,
1795.647,0.001604223,
1793.718,0.001750217,
1791.789,0.001952505,
1789.860,0.002260111,
1787.932,0.002668237,
1786.003,0.003190785,
1784.074,0.003895135,
1782.145,0.004862792,
1780.217,0.006136904,
1778.288,0.007600254,
1776.359,0.00884764,
1774.431,0.009322644,
1772.502,0.008798147,
1770.573,0.007647806,
1768.644,0.006481491,
1766.716,0.0056779,
1764.787,0.00517721,
1762.858,0.004649696,
1760.929,0.003946783,
1759.001,0.00316828,
1757.072,0.002452062,
1755.143,0.001880266,
1753.215,0.001459643,
1751.286,0.001179634,
1749.357,0.001014882,
1747.428,0.0008945169,
1745.500,0.0007803459,
1743.571,0.0006849154,
1741.642,0.00060349,
1739.713,0.0005234398,
1737.785,0.0004577516,
1735.856,0.0004204278,
1733.927,0.0004054783,
1731.999,0.0003674933,
1730.070,0.0002738061,
1728.141,0.0001553988,
1726.212,6.744119E-5,
1724.284,4.076025E-5,
1722.355,5.519867E-5,
1720.426,4.048205E-5,
1718.497,3.779875E-5,
1716.569,4.435732E-5,
1714.640,2.887165E-5,
1712.711,1.812457E-5,
1710.783,2.42227E-5,
1708.854,4.070451E-5,
1706.925,4.444169E-5,
1704.996,3.613684E-5,
1703.068,3.590121E-5,
1701.139,6.491123E-5,
1699.210,0.0001279568,
1697.281,0.0002557136,
1695.353,0.000458879,
1693.424,0.0006341767,
1691.495,0.0006718418,
1689.567,0.0006180088,
1687.638,0.000574855,
1685.709,0.000566575,
1683.780,0.0005748689,
1681.852,0.0005888393,
1679.923,0.0006090273,
1677.994,0.0006328289,
1676.065,0.0006631663,
1674.137,0.0007158897,
1672.208,0.0007885689,
1670.279,0.0008908886,
1668.350,0.001053839,
1666.422,0.001282655,
1664.493,0.001578889,
1662.564,0.002003985,
1660.636,0.002620684,
1658.707,0.003425132,
1656.778,0.004322276,
1654.849,0.005260057,
1652.921,0.006412,
1650.992,0.007639335,
1649.063,0.008340986,
1647.134,0.008354474,
1645.206,0.007997393,
1643.277,0.007421678,
1641.348,0.006595101,
1639.420,0.005624042,
1637.491,0.004684785,
1635.562,0.00395507,
1633.633,0.003527211,
1631.705,0.003248867,
1629.776,0.002951661,
1627.847,0.002634299,
1625.918,0.002324773,
1623.990,0.002029491,
1622.061,0.001776884,
1620.132,0.001572305,
1618.204,0.001389791,
1616.275,0.00123627,
1614.346,0.001128519,
1612.417,0.001040603,
1610.489,0.0009534133,
1608.560,0.0008891284,
1606.631,0.0008614641,
1604.702,0.0008461818,
1602.774,0.0008153009,
1600.845,0.0007630129,
1598.916,0.0007138002,
1596.988,0.0006851873,
1595.059,0.0006591546,
1593.130,0.0006264647,
1591.201,0.0005938365,
1589.273,0.0005730992,
1587.344,0.0005726582,
1585.415,0.0005862725,
1583.486,0.0005952619,
1581.558,0.0005822269,
1579.629,0.0005547783,
1577.700,0.0005256034,
1575.771,0.0004982129,
1573.843,0.0004832525,
1571.914,0.000494275,
1569.985,0.0005231446,
1568.057,0.0005427821,
1566.128,0.0005529915,
1564.199,0.0005589199,
1562.270,0.0005411109,
1560.342,0.0004970637,
1558.413,0.0004670259,
1556.484,0.0004822069,
1554.555,0.0005190712,
1552.627,0.0005438682,
1550.698,0.0005554655,
1548.769,0.0005766019,
1546.841,0.00060989,
1544.912,0.0006313361,
1542.983,0.000622722,
1541.054,0.0006042128,
1539.126,0.0006332483,
1537.197,0.0007119875,
1535.268,0.0007841123,
1533.339,0.0008464686,
1531.411,0.0009145866,
1529.482,0.0009751029,
1527.553,0.001028899,
1525.625,0.001084957,
1523.696,0.001135709,
1521.767,0.001190434,
1519.838,0.001281216,
1517.910,0.00142165,
1515.981,0.001614994,
1514.052,0.001858867,
1512.123,0.0021257,
1510.195,0.002390082,
1508.266,0.002702149,
1506.337,0.003217585,
1504.409,0.003989427,
1502.480,0.004881307,
1500.551,0.005814635,
1498.622,0.006824726,
1496.694,0.007996913,
1494.765,0.00922333,
1492.836,0.01003211,
1490.907,0.01006625,
1488.979,0.00946373,
1487.050,0.008559325,
1485.121,0.007505432,
1483.193,0.00632265,
1481.264,0.005097871,
1479.335,0.003989075,
1477.406,0.003078523,
1475.478,0.002347809,
1473.549,0.001782312,
1471.620,0.00139311,
1469.691,0.001134863,
1467.763,0.0009319256,
1465.834,0.0007738638,
1463.905,0.0006824671,
1461.976,0.0006317876,
1460.048,0.000565501,
1458.119,0.0004670121,
1456.190,0.0003709499,
1454.262,0.0002955788,
1452.333,0.0002274639,
1450.404,0.0001905,
1448.475,0.0002492218,
1446.547,0.0004281961,
1444.618,0.000654044,
1442.689,0.0008050576,
1440.760,0.0008130064,
1438.832,0.000703945,
1436.903,0.0005477803,
1434.974,0.0004134152,
1433.046,0.0003331333,
1431.117,0.0003075229,
1429.188,0.0003266451,
1427.259,0.0003611676,
1425.331,0.0003760389,
1423.402,0.0003703686,
1421.473,0.000393334,
1419.544,0.0004785974,
1417.616,0.0005910402,
1415.687,0.0006747007,
1413.758,0.0007089215,
1411.830,0.000698351,
1409.901,0.0006572016,
1407.972,0.0006045601,
1406.043,0.0005550666,
1404.115,0.0005207062,
1402.186,0.0004995101,
1400.257,0.0004781471,
1398.328,0.0004556164,
1396.400,0.0004375719,
1394.471,0.0004280348,
1392.542,0.0004215678,
1390.614,0.0003976462,
1388.685,0.0003553233,
1386.756,0.0003270896,
1384.827,0.0003335738,
1382.899,0.0003556369,
1380.970,0.0003710213,
1379.041,0.0003623972,
1377.112,0.0003289831,
1375.184,0.0002997008,
1373.255,0.0002892259,
1371.326,0.0002958213,
1369.398,0.0003064895,
1367.469,0.0003054245,
1365.540,0.0002920505,
1363.611,0.0002805339,
1361.683,0.0002849335,
1359.754,0.0003009953,
1357.825,0.0003151382,
1355.896,0.0003260408,
1353.968,0.0003409187,
1352.039,0.0003506544,
1350.110,0.0003286029,
1348.181,0.0002741488,
1346.253,0.0002252131,
1344.324,0.0002058389,
1342.395,0.0002080715,
1340.467,0.0002160178,
1338.538,0.0002209255,
1336.609,0.0002241324,
1334.680,0.0002471257,
1332.752,0.0003004301,
1330.823,0.0003507767,
1328.894,0.0003711776,
1326.965,0.0003974843,
1325.037,0.0004656532,
1323.108,0.0005367583,
1321.179,0.0005415673,
1319.251,0.0004677979,
1317.322,0.000359237,
1315.393,0.000259049,
1313.464,0.0001861644,
1311.536,0.0001473933,
1309.607,0.0001488595,
1307.678,0.0001827088,
1305.749,0.0002274566,
1303.821,0.0002700422,
1301.892,0.000301886,
1299.963,0.0003336559,
1298.035,0.0003815153,
1296.106,0.00043098,
1294.177,0.0004819665,
1292.248,0.0005595291,
1290.320,0.0006595343,
1288.391,0.0007727883,
1286.462,0.0009262352,
1284.533,0.001138491,
1282.605,0.001407027,
1280.676,0.001726114,
1278.747,0.00208301,
1276.819,0.002470716,
1274.890,0.002881463,
1272.961,0.003240169,
1271.032,0.003372495,
1269.104,0.003155754,
1267.175,0.002748519,
1265.246,0.002504401,
1263.317,0.002583719,
1261.389,0.002804903,
1259.460,0.002886995,
1257.531,0.002703851,
1255.603,0.002317189,
1253.674,0.001869437,
1251.745,0.001477065,
1249.816,0.001188515,
1247.888,0.0009793683,
1245.959,0.0007955715,
1244.030,0.0006244364,
1242.101,0.0004798452,
1240.173,0.0003656226,
1238.244,0.0002989879,
1236.315,0.0002779082,
1234.386,0.0002701803,
1232.458,0.0002570084,
1230.529,0.0002298957,
1228.600,0.0001742582,
1226.672,0.0001087207,
1224.743,8.312218E-5,
1222.814,5.949738E-5,
1220.885,4.317148E-5,
1218.957,0.0001064206,
1217.028,0.0002483222,
1215.099,0.0004243936,
1213.170,0.0005850791,
1211.242,0.0006798911,
1209.313,0.0006715724,
1207.384,0.0005847333,
1205.456,0.0004816685,
1203.527,0.0004105658,
1201.598,0.0003862955,
1199.669,0.0003685779,
1197.741,0.000322301,
1195.812,0.0002761166,
1193.883,0.0002575571,
1191.954,0.0002498062,
1190.026,0.0002372637,
1188.097,0.0002087223,
1186.168,0.0001753255,
1184.240,0.0001657737,
1182.311,0.0001594542,
1180.382,0.0001277097,
1178.453,0.0001086772,
1176.525,0.0001429068,
1174.596,0.0001668785,
1172.667,0.0001519652,
1170.738,0.0001335743,
1168.810,0.0001164574,
1166.881,9.37096E-5,
1164.952,9.289017E-5,
1163.024,0.0001112777,
1161.095,0.0001081665,
1159.166,8.388531E-5,
1157.237,9.90389E-5,
1155.309,0.0001532668,
1153.380,0.0001829385,
1151.451,0.0001593413,
1149.522,0.0001230807,
1147.594,0.0001066606,
1145.665,9.684483E-5,
1143.736,8.688527E-5,
1141.807,0.0001109037,
1139.879,0.0001660316,
1137.950,0.0001801387,
1136.021,0.0001686482,
1134.093,0.0001815255,
1132.164,0.0001806562,
1130.235,0.0001488104,
1128.306,0.0001404909,
1126.378,0.0001582972,
1124.449,0.0001630095,
1122.520,0.0001450904,
1120.591,0.0001120026,
1118.663,7.2266E-5,
1116.734,4.298409E-5,
1114.805,7.271352E-5,
1112.877,8.748189E-5,
1110.948,0.0001118401,
1109.019,0.0001485321,
1107.090,0.0001455709,
1105.162,0.0001195972,
1103.233,0.0001065426,
1101.304,0.0001180991,
1099.375,0.000131445,
1097.447,0.0001273903,
1095.518,0.0001319313,
1093.589,0.000180933,
1091.661,0.000236748,
1089.732,0.0002519436,
1087.803,0.0002234037,
1085.874,0.000187275,
1083.946,0.0001833124,
1082.017,0.0002174783,
1080.088,0.0002754485,
1078.159,0.0003343566,
1076.231,0.0003623414,
1074.302,0.0003499635,
1072.373,0.0003403036,
1070.445,0.0003435957,
1068.516,0.0003527988,
1066.587,0.0003858666,
1064.658,0.000414613,
1062.730,0.0004161435,
1060.801,0.0004161773,
1058.872,0.0003977047,
1056.943,0.000318526,
1055.015,0.0002288387,
1053.086,0.0002141854,
1051.157,0.0002714205,
1049.229,0.0003587988,
1047.300,0.0004759514,
1045.371,0.0006037773,
1043.442,0.0007312543,
1041.514,0.0008275968,
1039.585,0.000852203,
1037.656,0.0008169194,
1035.727,0.0007395732,
1033.799,0.000658517,
1031.870,0.0005996493,
1029.941,0.0005073342,
1028.012,0.0003707944,
1026.084,0.0002438156,
1024.155,0.0001424627,
1022.226,7.526826E-5,
1020.298,8.195236E-5,
1018.369,0.0001011536,
1016.440,0.0001317807,
1014.511,0.0001522046,
1012.583,0.0001443571,
1010.654,0.0001400963,
1008.725,0.0001396046,
1006.796,0.0001271388,
1004.868,0.0001060916,
1002.939,9.190149E-5,
1001.010,8.631621E-5,
999.082,7.809934E-5,
997.153,5.885857E-5,
995.224,4.77909E-5,
993.295,7.311207E-5,
991.367,9.73894E-5,
989.438,9.253748E-5,
987.509,6.929806E-5,
985.580,4.820666E-5,
983.652,6.979526E-5,
981.723,5.551361E-5,
979.794,3.040789E-5,
977.866,4.574548E-5,
975.937,7.323009E-5,
974.008,9.891499E-5,
972.079,0.0001173232,
970.151,0.0001153147,
968.222,8.820362E-5,
966.293,6.655098E-5,
964.364,6.781855E-5,
962.436,7.260998E-5,
960.507,5.45984E-5,
958.578,3.775056E-5,
956.650,4.780946E-5,
954.721,6.372821E-5,
952.792,6.539916E-5,
950.863,6.204018E-5,
948.935,6.082267E-5,
947.006,6.671598E-5,
945.077,7.621548E-5,
943.148,4.540001E-5,
941.220,4.828365E-5,
939.291,7.191626E-5,
937.362,6.526805E-5,
935.434,5.502996E-5,
933.505,5.361177E-5,
931.576,6.934107E-5,
929.647,5.651941E-5,
927.719,4.491235E-5,
925.790,6.224077E-5,
923.861,5.231063E-5,
921.932,3.073394E-5,
920.004,7.135353E-5,
918.075,0.0001187842,
916.146,0.0001234874,
914.217,0.0001040947,
912.289,9.078522E-5,
910.360,4.581279E-5,
908.431,5.791357E-5,
906.503,6.708726E-5,
904.574,0.0001072125,
902.645,0.0001228992,
900.716,0.0001230789,
898.788,8.099035E-5,
896.859,5.68557E-5,
894.930,9.068389E-5,
893.001,9.609848E-5,
891.073,0.0001003526,
889.144,0.000107866,
887.215,0.0001307582,
885.287,9.399681E-5,
883.358,0.0001005528,
881.429,9.730734E-5,
879.500,9.685376E-5,
877.572,9.61231E-5,
875.643,7.504267E-5,
873.714,4.774094E-5,
871.785,3.283297E-5,
869.857,4.024347E-5,
867.928,8.627092E-5,
865.999,0.0001217306,
864.071,0.0001083085,
862.142,6.612997E-5,
860.213,4.571906E-5,
858.284,5.026422E-5,
856.356,5.548326E-5,
854.427,6.477583E-5,
852.498,0.0001036477,
850.569,0.0001213254,
848.641,0.0001077821,
846.712,9.61667E-5,
844.783,5.617775E-5,
842.855,3.020937E-5,
840.926,0.0001061849,
838.997,0.0001775178,
837.068,0.0001698373,
835.140,0.0001179563,
833.211,7.824713E-5,
831.282,7.863949E-5,
829.353,9.591895E-5,
827.425,9.522887E-5,
825.496,0.0001238761,
823.567,0.0001417282,
821.639,0.000119824,
819.710,9.344403E-5,
817.781,9.710796E-5,
815.852,9.737859E-5,
813.924,0.0001008052,
811.995,8.970087E-5,
810.066,9.078901E-5,
808.137,5.33794E-5,
806.209,0.0001143616,
804.280,0.0001827895,
802.351,0.0001651061,
800.422,9.228453E-5,
798.494,9.254977E-5,
796.565,0.0001459692,
794.636,0.0001210153,
792.708,9.117556E-5,
790.779,5.526122E-5,
788.850,9.100125E-5,
786.921,0.0001453133,
784.993,0.0001362885,
783.064,0.0001279692,
781.135,0.0001272799,
779.206,7.215104E-5,
777.278,7.297868E-5,
775.349,8.988596E-5,
773.420,0.000104143,
771.492,0.0001341318,
769.563,0.0001005769,
767.634,8.208741E-5,
765.705,6.204529E-5,
763.777,4.974783E-5,
761.848,5.986106E-5,
759.919,6.932269E-5,
757.990,6.676171E-5,
756.062,5.819962E-5,
754.133,8.740827E-5,
752.204,9.562862E-5,
750.276,6.21435E-5,
748.347,9.823779E-5,
746.418,0.0001389109,
744.489,0.0001114574,
742.561,0.0001047271,
740.632,0.0001669212,
738.703,0.0001649251,
736.774,9.155664E-5,
734.846,2.030188E-5,
732.917,0.0001170599,
730.988,0.0001725902,
729.060,0.0001060888,
727.131,6.755744E-5,
725.202,9.475765E-5,
723.273,9.391257E-5,
721.345,6.57058E-5,
719.416,9.525885E-5,
717.487,0.0001124572,
715.558,0.0001406119,
713.630,0.0001714006,
711.701,0.0002043361,
709.772,0.0001944245,
707.843,0.0001502328,
705.915,0.0001527249,
703.986,0.0001687868,
702.057,0.0001721965,
700.129,0.0001217618,
698.200,0.0001080544,
696.271,0.000194173,
694.342,0.0001586857,
692.414,0.0001094854,
690.485,0.0001311087,
688.556,0.0001793014,
686.627,0.0001573072,
684.699,0.0001104729,
682.770,0.000197062,
680.841,0.0002799016,
678.913,0.0003003351,
676.984,0.0002325205,
675.055,0.0001601044,
673.126,0.0001460048,
671.198,0.0001491734,
669.269,0.0001820642,
667.340,0.000129822,
665.411,0.0001444443,
663.483,0.0002167043,
661.554,0.000240766,
659.625,0.0001845078,
657.697,0.0002068286,
655.768,0.0002951855,
653.839,0.0002576197,
651.910,0.0001829017,
649.982,0.000325088,
648.053,0.0003161651,
646.124,0.0001981455,
644.195,9.511971E-5,
642.267,0.0001553166,
640.338,0.0002100144,
638.409,0.0001631447,
636.481,0.000175593,
634.552,0.0001429546,
632.623,7.348737E-5,
630.694,6.065951E-5,
628.766,9.55528E-5,
626.837,0.0001388479,
624.908,0.0001525256,
622.979,0.0001666327,
621.051,0.0001654855,
619.122,0.0001428119,
617.193,0.0003274491,
615.265,0.0003770305,
613.336,0.0002966663,
611.407,0.0002427635,
609.478,0.0002761574,
607.550,0.0003062699,
605.621,0.0003108447,
603.692,0.0003140425,
601.763,0.0002712941,
599.835,0.0002541702,
597.906,0.0002195828,
595.977,0.0002454366,
594.048,0.0002699772,
592.120,0.0003206521,
590.191,0.000329187,
588.262,0.0003184875,
586.334,0.0004370349,
584.405,0.0004135895,
582.476,0.0002570425,
580.547,5.706887E-5,
578.619,7.827731E-5,
576.690,0.0002081816,
574.761,0.0002695655,
572.832,0.0002788884,
570.904,0.0003706485,
568.975,0.0003553958,
567.046,0.0002627886,
565.118,0.0003453919,
563.189,0.0004357294,
561.260,0.0004634053,
559.331,0.0004580955,
557.403,0.000507225,
555.474,0.000556963,
553.545,0.0006176817,
551.616,0.0006206825,
549.688,0.0004889555,
547.759,0.0004716177,
545.830,0.0006652247,
543.902,0.0005587385,
541.973,0.0004098176,
540.044,0.0003154349,
538.115,0.0003746231,
536.187,0.0004371442,
534.258,0.0002931881,
532.329,0.0002541248,
530.400,0.0002449341,
528.472,0.0002128578,
526.543,0.000158675,
524.614,0.0002750277,
522.686,0.0002807419,
520.757,0.0003000328,
518.828,0.0004308895,
516.899,0.0004732872,
514.971,0.0002404825,
513.042,0.000202057,
511.113,0.0002772214,
509.184,0.000159273,
507.256,0.0003171343,
505.327,0.0004303902,
503.398,0.0003643518,
501.470,0.000305755,
499.541,0.0004237155,
497.612,0.0004729898,
495.683,0.0004985491,
493.755,0.0005307044,
491.826,0.0005827749,
489.897,0.0006076536,
487.968,0.0005493715,
486.040,0.0005009798,
484.111,0.0005181762,
482.182,0.0004976167,
480.253,0.0001877286,
478.325,0.0002977898,
476.396,0.0002668497,
474.467,0.0001522005,
472.539,0.0004746967,
470.610,0.0007530494,
468.681,0.0005749463,
466.752,0.0002857665,
464.824,0.0004979729,
462.895,0.0007527502,
460.966,0.0009016582,
459.037,0.0007675008,
457.109,0.000591998,
455.180,0.0004830348,
453.251,0.0004288913,
451.323,0.0006423238,
449.394,0.0007018844,
447.465,0.0004314116,
445.536,0.0003979838,
443.608,0.0007621073,
441.679,0.0009401552,
439.750,0.001077728,
437.821,0.001041637,
435.893,0.001228252,
433.964,0.001956583,
432.035,0.001433058,
430.107,0.0006148508,
428.178,0.001432661,
426.249,0.001850573,
424.320,0.001254296,
422.392,0.0005905296,
420.463,0.001399345,
418.534,0.001467554,
416.605,0.001671991,
414.677,0.00283823,
412.748,0.002899758,
410.819,0.00203575,
408.891,0.001585143,
406.962,0.00140425,
405.033,0.001449637,
403.104,0.00204651,
401.176,0.001873809,
399.247,0.001052686,
397.318,0.001930309,
395.389,0.004419951,
393.461,0.005354562,
391.532,0.003426533,
389.603,0.003397734,
387.675,0.002871472,
385.746,0.003101269,
383.817,0.005741626,
381.888,0.004782536,
379.960,0.003156933,
378.031,0.00537704,
376.102,0.005505992,
374.173,0.002880889,
