,02-11-2021_11h23,
Wavenumbers [1/cm],Transmittance,
6993.571,4.180506,
6989.713,4.183698,
6985.856,4.184155,
6981.999,4.184114,
6978.141,4.186123,
6974.284,4.187527,
6970.426,4.187958,
6966.569,4.188299,
6962.711,4.188513,
6958.854,4.188881,
6954.996,4.189947,
6951.139,4.19249,
6947.281,4.194623,
6943.424,4.193871,
6939.567,4.190878,
6935.709,4.187099,
6931.852,4.184238,
6927.994,4.183064,
6924.137,4.181606,
6920.279,4.179574,
6916.422,4.179667,
6912.564,4.180453,
6908.707,4.178092,
6904.849,4.174387,
6900.992,4.172618,
6897.134,4.172305,
6893.277,4.173582,
6889.420,4.177845,
6885.562,4.183244,
6881.705,4.186882,
6877.847,4.188204,
6873.990,4.186879,
6870.132,4.183055,
6866.275,4.179199,
6862.417,4.177643,
6858.560,4.176775,
6854.702,4.173286,
6850.845,4.167139,
6846.988,4.160242,
6843.130,4.153324,
6839.273,4.147039,
6835.415,4.142334,
6831.558,4.139157,
6827.700,4.137299,
6823.843,4.137681,
6819.985,4.142355,
6816.128,4.150567,
6812.270,4.157657,
6808.413,4.162311,
6804.555,4.166402,
6800.698,4.17077,
6796.841,4.175258,
6792.983,4.178768,
6789.126,4.182123,
6785.268,4.187241,
6781.411,4.192687,
6777.553,4.196416,
6773.696,4.199925,
6769.838,4.203853,
6765.981,4.205766,
6762.123,4.204961,
6758.266,4.203279,
6754.409,4.202507,
6750.551,4.202576,
6746.694,4.203926,
6742.836,4.207174,
6738.979,4.209746,
6735.121,4.211253,
6731.264,4.213674,
6727.406,4.216055,
6723.549,4.21771,
6719.691,4.219356,
6715.834,4.220215,
6711.977,4.219352,
6708.119,4.217086,
6704.262,4.21407,
6700.404,4.21227,
6696.547,4.212258,
6692.689,4.211497,
6688.832,4.209858,
6684.974,4.209123,
6681.117,4.209535,
6677.259,4.210457,
6673.402,4.210356,
6669.544,4.2095,
6665.687,4.210594,
6661.830,4.213687,
6657.972,4.21632,
6654.115,4.21729,
6650.257,4.217564,
6646.400,4.219106,
6642.542,4.221432,
6638.685,4.222176,
6634.827,4.220931,
6630.970,4.218961,
6627.112,4.217669,
6623.255,4.216937,
6619.398,4.215499,
6615.540,4.213561,
6611.683,4.212368,
6607.825,4.212408,
6603.968,4.212318,
6600.110,4.211061,
6596.253,4.20997,
6592.395,4.210763,
6588.538,4.214177,
6584.680,4.218837,
6580.823,4.222294,
6576.965,4.22495,
6573.108,4.226623,
6569.251,4.224882,
6565.393,4.221591,
6561.536,4.219874,
6557.678,4.217962,
6553.821,4.215386,
6549.963,4.215581,
6546.106,4.218375,
6542.248,4.219435,
6538.391,4.217299,
6534.533,4.214954,
6530.676,4.214795,
6526.819,4.216004,
6522.961,4.216947,
6519.104,4.217083,
6515.246,4.21697,
6511.389,4.217435,
6507.531,4.218428,
6503.674,4.21955,
6499.816,4.220725,
6495.959,4.221533,
6492.101,4.221943,
6488.244,4.222203,
6484.386,4.22167,
6480.529,4.22075,
6476.672,4.220028,
6472.814,4.218229,
6468.957,4.216094,
6465.099,4.215684,
6461.242,4.216068,
6457.384,4.215699,
6453.527,4.214626,
6449.669,4.212929,
6445.812,4.212068,
6441.954,4.213928,
6438.097,4.216428,
6434.240,4.21754,
6430.382,4.218622,
6426.525,4.219759,
6422.667,4.220634,
6418.810,4.221931,
6414.952,4.222944,
6411.095,4.223507,
6407.237,4.225055,
6403.380,4.226626,
6399.522,4.224851,
6395.665,4.22047,
6391.808,4.218526,
6387.950,4.220204,
6384.093,4.222093,
6380.235,4.222826,
6376.378,4.222777,
6372.520,4.221838,
6368.663,4.221172,
6364.805,4.221503,
6360.948,4.222517,
6357.090,4.224607,
6353.233,4.226027,
6349.375,4.224727,
6345.518,4.223125,
6341.661,4.223943,
6337.803,4.226636,
6333.946,4.229208,
6330.088,4.229583,
6326.231,4.227809,
6322.373,4.22628,
6318.516,4.225528,
6314.658,4.22387,
6310.801,4.221408,
6306.943,4.219517,
6303.086,4.218117,
6299.229,4.216771,
6295.371,4.21599,
6291.514,4.21655,
6287.656,4.218288,
6283.799,4.219972,
6279.941,4.221169,
6276.084,4.223085,
6272.226,4.226,
6268.369,4.228292,
6264.511,4.229338,
6260.654,4.2304,
6256.796,4.231802,
6252.939,4.231681,
6249.082,4.229912,
6245.224,4.228824,
6241.367,4.228045,
6237.509,4.225939,
6233.652,4.223639,
6229.794,4.222592,
6225.937,4.222304,
6222.079,4.221152,
6218.222,4.218481,
6214.364,4.216645,
6210.507,4.2182,
6206.650,4.221562,
6202.792,4.223712,
6198.935,4.225306,
6195.077,4.228695,
6191.220,4.232959,
6187.362,4.234889,
6183.505,4.234134,
6179.647,4.232857,
6175.790,4.231391,
6171.932,4.228803,
6168.075,4.22587,
6164.218,4.224184,
6160.360,4.223788,
6156.503,4.223874,
6152.645,4.223512,
6148.788,4.221421,
6144.930,4.21859,
6141.073,4.218219,
6137.215,4.220686,
6133.358,4.223158,
6129.500,4.224204,
6125.643,4.225445,
6121.785,4.22808,
6117.928,4.230247,
6114.071,4.23024,
6110.213,4.229779,
6106.356,4.231276,
6102.498,4.232918,
6098.641,4.231441,
6094.783,4.227814,
6090.926,4.224205,
6087.068,4.221402,
6083.211,4.219956,
6079.353,4.219412,
6075.496,4.219299,
6071.639,4.219702,
6067.781,4.21986,
6063.924,4.218503,
6060.066,4.216566,
6056.209,4.216644,
6052.351,4.219514,
6048.494,4.223742,
6044.636,4.226182,
6040.779,4.225335,
6036.921,4.223567,
6033.064,4.222524,
6029.206,4.22156,
6025.349,4.220698,
6021.492,4.220283,
6017.634,4.218744,
6013.777,4.21521,
6009.919,4.211069,
6006.062,4.20635,
6002.204,4.200595,
5998.347,4.195435,
5994.489,4.191523,
5990.632,4.18642,
5986.774,4.178581,
5982.917,4.168849,
5979.060,4.157343,
5975.202,4.143885,
5971.345,4.130053,
5967.487,4.119142,
5963.630,4.114271,
5959.772,4.117282,
5955.915,4.128087,
5952.057,4.142545,
5948.200,4.155253,
5944.342,4.164188,
5940.485,4.169339,
5936.627,4.170735,
5932.770,4.169477,
5928.913,4.166749,
5925.055,4.162,
5921.198,4.154883,
5917.340,4.145816,
5913.483,4.135504,
5909.625,4.126129,
5905.768,4.120767,
5901.910,4.122284,
5898.053,4.131479,
5894.195,4.14581,
5890.338,4.161259,
5886.481,4.174955,
5882.623,4.186831,
5878.766,4.197218,
5874.908,4.204673,
5871.051,4.20911,
5867.193,4.211792,
5863.336,4.212444,
5859.478,4.211112,
5855.621,4.209007,
5851.763,4.207031,
5847.906,4.206236,
5844.049,4.206619,
5840.191,4.205859,
5836.334,4.202629,
5832.476,4.198625,
5828.619,4.195739,
5824.761,4.194602,
5820.904,4.19448,
5817.046,4.193522,
5813.189,4.19115,
5809.331,4.187712,
5805.474,4.183378,
5801.616,4.178761,
5797.759,4.173661,
5793.902,4.167314,
5790.044,4.160613,
5786.187,4.154888,
5782.329,4.150086,
5778.472,4.146583,
5774.614,4.145512,
5770.757,4.147083,
5766.899,4.150525,
5763.042,4.154617,
5759.184,4.158751,
5755.327,4.162486,
5751.470,4.165109,
5747.612,4.167192,
5743.755,4.169828,
5739.897,4.173336,
5736.040,4.177954,
5732.182,4.18426,
5728.325,4.192063,
5724.467,4.200127,
5720.610,4.208078,
5716.752,4.215612,
5712.895,4.221485,
5709.037,4.226214,
5705.180,4.230556,
5701.323,4.233018,
5697.465,4.233724,
5693.608,4.235096,
5689.750,4.237833,
5685.893,4.240806,
5682.035,4.243492,
5678.178,4.246422,
5674.320,4.249802,
5670.463,4.253342,
5666.605,4.256933,
5662.748,4.260131,
5658.891,4.261531,
5655.033,4.260832,
5651.176,4.259674,
5647.318,4.258443,
5643.461,4.256079,
5639.603,4.252738,
5635.746,4.249298,
5631.888,4.245789,
5628.031,4.242235,
5624.173,4.239664,
5620.316,4.238827,
5616.459,4.239565,
5612.601,4.241558,
5608.744,4.244887,
5604.886,4.249474,
5601.029,4.254783,
5597.171,4.26098,
5593.314,4.267991,
5589.456,4.274776,
5585.599,4.280584,
5581.741,4.284794,
5577.884,4.287463,
5574.026,4.289772,
5570.169,4.292617,
5566.312,4.295686,
5562.454,4.297899,
5558.597,4.298857,
5554.739,4.298691,
5550.882,4.29758,
5547.024,4.296756,
5543.167,4.296916,
5539.309,4.297638,
5535.452,4.299082,
5531.594,4.300844,
5527.737,4.301999,
5523.880,4.302663,
5520.022,4.30332,
5516.165,4.304357,
5512.307,4.30583,
5508.450,4.307813,
5504.592,4.31076,
5500.735,4.311794,
5496.877,4.306809,
5493.020,4.30058,
5489.162,4.302271,
5485.305,4.309202,
5481.447,4.308848,
5477.590,4.300286,
5473.733,4.295786,
5469.875,4.296777,
5466.018,4.294632,
5462.160,4.291425,
5458.303,4.294002,
5454.445,4.297177,
5450.588,4.291832,
5446.730,4.283157,
5442.873,4.282773,
5439.015,4.288461,
5435.158,4.289996,
5431.301,4.289092,
5427.443,4.296688,
5423.586,4.31016,
5419.728,4.31063,
5415.871,4.294407,
5412.013,4.284615,
5408.156,4.294143,
5404.298,4.306936,
5400.441,4.305829,
5396.583,4.295578,
5392.726,4.291502,
5388.868,4.29476,
5385.011,4.297244,
5381.154,4.296001,
5377.296,4.294904,
5373.439,4.302714,
5369.581,4.314794,
5365.724,4.320284,
5361.866,4.320321,
5358.009,4.314538,
5354.151,4.304766,
5350.294,4.297332,
5346.436,4.291631,
5342.579,4.288124,
5338.722,4.291265,
5334.864,4.300194,
5331.007,4.307288,
5327.149,4.311682,
5323.292,4.318198,
5319.434,4.323698,
5315.577,4.324059,
5311.719,4.319756,
5307.862,4.315084,
5304.004,4.315555,
5300.147,4.319055,
5296.290,4.318825,
5292.432,4.314233,
5288.575,4.311683,
5284.717,4.314079,
5280.860,4.317995,
5277.002,4.320385,
5273.145,4.318007,
5269.287,4.308246,
5265.430,4.297766,
5261.572,4.296299,
5257.715,4.299169,
5253.857,4.296111,
5250.000,4.288816,
5246.143,4.287579,
5242.285,4.296385,
5238.428,4.30492,
5234.570,4.304782,
5230.713,4.299646,
5226.855,4.296777,
5222.998,4.300824,
5219.140,4.309034,
5215.283,4.31318,
5211.425,4.308097,
5207.568,4.303249,
5203.711,4.310416,
5199.853,4.321362,
5195.996,4.326715,
5192.138,4.328203,
5188.281,4.326704,
5184.423,4.325127,
5180.566,4.32627,
5176.708,4.327352,
5172.851,4.326264,
5168.993,4.32409,
5165.136,4.322371,
5161.278,4.321734,
5157.421,4.321737,
5153.564,4.322393,
5149.706,4.323792,
5145.849,4.324775,
5141.991,4.325803,
5138.134,4.328187,
5134.276,4.331001,
5130.419,4.333197,
5126.561,4.334146,
5122.704,4.333025,
5118.846,4.33041,
5114.989,4.327252,
5111.132,4.32302,
5107.274,4.317011,
5103.417,4.309785,
5099.559,4.302971,
5095.702,4.299101,
5091.844,4.299944,
5087.987,4.304637,
5084.129,4.310939,
5080.272,4.317259,
5076.414,4.323045,
5072.557,4.328602,
5068.700,4.334281,
5064.842,4.339736,
5060.985,4.344391,
5057.127,4.348217,
5053.270,4.351559,
5049.412,4.353997,
5045.555,4.354787,
5041.697,4.354646,
5037.840,4.355026,
5033.982,4.355866,
5030.125,4.356084,
5026.267,4.355396,
5022.410,4.353821,
5018.553,4.351675,
5014.695,4.350236,
5010.838,4.349838,
5006.980,4.349318,
5003.123,4.348623,
4999.265,4.348708,
4995.408,4.349265,
4991.550,4.349801,
4987.693,4.350883,
4983.835,4.352494,
4979.978,4.353775,
4976.121,4.354416,
4972.263,4.354753,
4968.406,4.355025,
4964.548,4.355051,
4960.691,4.354362,
4956.833,4.353066,
4952.976,4.351767,
4949.118,4.35055,
4945.261,4.349532,
4941.403,4.349066,
4937.546,4.348562,
4933.688,4.347361,
4929.831,4.346062,
4925.974,4.345346,
4922.116,4.345421,
4918.259,4.346368,
4914.401,4.347655,
4910.544,4.348753,
4906.686,4.349582,
4902.829,4.349877,
4898.971,4.349507,
4895.114,4.348766,
4891.256,4.348016,
4887.399,4.346802,
4883.542,4.34414,
4879.684,4.340325,
4875.827,4.336386,
4871.969,4.332777,
4868.112,4.330321,
4864.254,4.329569,
4860.397,4.32904,
4856.539,4.327708,
4852.682,4.327045,
4848.824,4.327861,
4844.967,4.329113,
4841.109,4.330201,
4837.252,4.331347,
4833.395,4.332883,
4829.537,4.334889,
4825.680,4.336555,
4821.822,4.336903,
4817.965,4.336401,
4814.107,4.335627,
4810.250,4.333932,
4806.392,4.331179,
4802.535,4.327851,
4798.677,4.324246,
4794.820,4.320817,
4790.963,4.31772,
4787.105,4.314555,
4783.248,4.311072,
4779.390,4.3077,
4775.533,4.304996,
4771.675,4.303238,
4767.818,4.302457,
4763.960,4.301703,
4760.103,4.299638,
4756.245,4.296277,
4752.388,4.292108,
4748.531,4.286134,
4744.673,4.276834,
4740.816,4.263926,
4736.958,4.247798,
4733.101,4.228425,
4729.243,4.20657,
4725.386,4.185836,
4721.528,4.171618,
4717.671,4.168196,
4713.813,4.176309,
4709.956,4.191941,
4706.098,4.208887,
4702.241,4.222802,
4698.384,4.231896,
4694.526,4.235751,
4690.669,4.235261,
4686.811,4.232835,
4682.954,4.231399,
4679.096,4.232979,
4675.239,4.237878,
4671.381,4.244755,
4667.524,4.25148,
4663.666,4.255718,
4659.809,4.255817,
4655.952,4.251395,
4652.094,4.242815,
4648.237,4.231335,
4644.379,4.219337,
4640.522,4.209891,
4636.664,4.205621,
4632.807,4.207451,
4628.949,4.214975,
4625.092,4.22689,
4621.234,4.240864,
4617.377,4.254376,
4613.519,4.265895,
4609.662,4.274966,
4605.805,4.281996,
4601.947,4.287713,
4598.090,4.29195,
4594.232,4.294421,
4590.375,4.295883,
4586.517,4.296955,
4582.660,4.297021,
4578.802,4.295329,
4574.945,4.292446,
4571.087,4.289226,
4567.230,4.285877,
4563.373,4.282649,
4559.515,4.279635,
4555.658,4.276504,
4551.800,4.273496,
4547.943,4.271359,
4544.085,4.270065,
4540.228,4.269178,
4536.370,4.26828,
4532.513,4.267087,
4528.655,4.265676,
4524.798,4.263853,
4520.940,4.261521,
4517.083,4.258682,
4513.226,4.254694,
4509.368,4.249172,
4505.511,4.242373,
4501.653,4.234371,
4497.796,4.225216,
4493.938,4.215098,
4490.081,4.203932,
4486.223,4.191785,
4482.366,4.178868,
4478.508,4.165178,
4474.651,4.150589,
4470.794,4.134856,
4466.936,4.117508,
4463.079,4.097507,
4459.221,4.073817,
4455.364,4.045652,
4451.506,4.011552,
4447.649,3.969671,
4443.791,3.918647,
4439.934,3.858219,
4436.076,3.790002,
4432.219,3.719095,
4428.362,3.655697,
4424.504,3.612703,
4420.647,3.598829,
4416.789,3.612344,
4412.932,3.641465,
4409.074,3.672009,
4405.217,3.694841,
4401.359,3.707437,
4397.502,3.711952,
4393.644,3.713352,
4389.787,3.717143,
4385.929,3.725798,
4382.072,3.736534,
4378.215,3.743867,
4374.357,3.744656,
4370.500,3.73881,
4366.642,3.726739,
4362.785,3.711329,
4358.927,3.700604,
4355.070,3.703561,
4351.212,3.723927,
4347.355,3.758082,
4343.497,3.797399,
4339.640,3.832844,
4335.783,3.857915,
4331.925,3.868969,
4328.068,3.865658,
4324.210,3.851561,
4320.353,3.833969,
4316.495,3.822867,
4312.638,3.827579,
4308.780,3.850338,
4304.923,3.884257,
4301.065,3.919878,
4297.208,3.950995,
4293.350,3.975578,
4289.493,3.994806,
4285.636,4.010717,
4281.778,4.024754,
4277.921,4.037715,
4274.063,4.049519,
4270.206,4.059518,
4266.348,4.067544,
4262.491,4.073494,
4258.633,4.076596,
4254.776,4.076429,
4250.918,4.073372,
4247.061,4.067506,
4243.204,4.058129,
4239.346,4.044454,
4235.489,4.026713,
4231.631,4.007484,
4227.774,3.991272,
4223.916,3.982314,
4220.059,3.981752,
4216.201,3.985788,
4212.344,3.987732,
4208.486,3.980484,
4204.629,3.958818,
4200.772,3.921212,
4196.914,3.86957,
4193.057,3.811625,
4189.199,3.763736,
4185.342,3.74566,
4181.484,3.766654,
4177.627,3.817573,
4173.769,3.878694,
4169.912,3.932723,
4166.054,3.970567,
4162.197,3.989077,
4158.339,3.987578,
4154.482,3.966298,
4150.625,3.929571,
4146.767,3.891378,
4142.910,3.872578,
4139.052,3.886579,
4135.195,3.927643,
4131.337,3.978014,
4127.480,4.022647,
4123.622,4.055394,
4119.765,4.076921,
4115.907,4.090199,
4112.050,4.097678,
4108.193,4.100887,
4104.335,4.101201,
4100.478,4.098853,
4096.620,4.093412,
4092.763,4.084571,
4088.905,4.071632,
4085.048,4.054092,
4081.190,4.032079,
4077.333,4.007652,
4073.475,3.984907,
4069.618,3.969157,
4065.760,3.964655,
4061.903,3.972357,
4058.046,3.990205,
4054.188,4.013613,
4050.331,4.037286,
4046.473,4.056413,
4042.616,4.068093,
4038.758,4.070755,
4034.901,4.063341,
4031.043,4.04654,
4027.186,4.022053,
4023.328,3.992901,
4019.471,3.963071,
4015.614,3.93791,
4011.756,3.923764,
4007.899,3.924777,
4004.041,3.938313,
4000.184,3.955134,
3996.326,3.969758,
3992.469,3.984376,
3988.611,4.003736,
3984.754,4.029442,
3980.896,4.059137,
3977.039,4.089725,
3973.181,4.118933,
3969.324,4.144701,
3965.467,4.16343,
3961.609,4.175846,
3957.752,4.183858,
3953.894,4.18424,
3950.037,4.177833,
3946.179,4.172792,
3942.322,4.174932,
3938.464,4.17577,
3934.607,4.166567,
3930.749,4.157439,
3926.892,4.154781,
3923.035,4.149181,
3919.177,4.146751,
3915.320,4.162984,
3911.462,4.169966,
3907.605,4.12559,
3903.747,4.069182,
3899.890,4.076059,
3896.032,4.12034,
3892.175,4.130164,
3888.317,4.111352,
3884.460,4.108041,
3880.603,4.128098,
3876.745,4.129487,
3872.888,4.089558,
3869.030,4.059112,
3865.173,4.077824,
3861.315,4.077967,
3857.458,3.982961,
3853.600,3.914642,
3849.743,4.003463,
3845.885,4.098635,
3842.028,4.064299,
3838.170,4.010438,
3834.313,4.042871,
3830.456,4.106691,
3826.598,4.107423,
3822.741,4.045272,
3818.883,4.008164,
3815.026,4.046252,
3811.168,4.086761,
3807.311,4.056446,
3803.453,4.010029,
3799.596,4.031628,
3795.738,4.107634,
3791.881,4.165979,
3788.024,4.177484,
3784.166,4.164015,
3780.309,4.157841,
3776.451,4.16294,
3772.594,4.154984,
3768.736,4.14228,
3764.879,4.144641,
3761.021,4.134801,
3757.164,4.066552,
3753.306,3.944112,
3749.449,3.849855,
3745.591,3.861194,
3741.734,3.939186,
3737.877,3.984311,
3734.019,4.005943,
3730.162,4.062514,
3726.304,4.119603,
3722.447,4.148011,
3718.589,4.146304,
3714.732,4.101625,
3710.874,4.071749,
3707.017,4.099314,
3703.159,4.13121,
3699.302,4.130203,
3695.445,4.078811,
3691.587,3.98944,
3687.730,3.955799,
3683.872,3.973421,
3680.015,3.915138,
3676.157,3.793984,
3672.300,3.741706,
3668.442,3.788483,
3664.585,3.842701,
3660.727,3.819817,
3656.870,3.72313,
3653.013,3.603475,
3649.155,3.535361,
3645.298,3.557544,
3641.440,3.5952,
3637.583,3.566143,
3633.725,3.473224,
3629.868,3.390785,
3626.010,3.378989,
3622.153,3.390476,
3618.295,3.379381,
3614.438,3.368815,
3610.580,3.376889,
3606.723,3.409401,
3602.866,3.447936,
3599.008,3.467306,
3595.151,3.471281,
3591.293,3.468943,
3587.436,3.481292,
3583.578,3.522274,
3579.721,3.564343,
3575.863,3.579009,
3572.006,3.563705,
3568.148,3.543143,
3564.291,3.552011,
3560.434,3.579428,
3556.576,3.589885,
3552.719,3.579955,
3548.861,3.564484,
3545.004,3.556239,
3541.146,3.556285,
3537.289,3.554332,
3533.431,3.545924,
3529.574,3.53545,
3525.716,3.531361,
3521.859,3.537736,
3518.001,3.548208,
3514.144,3.554941,
3510.287,3.558526,
3506.429,3.564008,
3502.572,3.574937,
3498.714,3.592301,
3494.857,3.613097,
3490.999,3.633937,
3487.142,3.65273,
3483.284,3.668096,
3479.427,3.678329,
3475.569,3.678357,
3471.712,3.662218,
3467.855,3.6262,
3463.997,3.571753,
3460.140,3.511153,
3456.282,3.46645,
3452.425,3.45223,
3448.567,3.460926,
3444.710,3.468948,
3440.852,3.449417,
3436.995,3.382376,
3433.137,3.258206,
3429.280,3.071713,
3425.422,2.820598,
3421.565,2.525212,
3417.708,2.256923,
3413.850,2.124522,
3409.993,2.199392,
3406.135,2.451931,
3402.278,2.781195,
3398.420,3.095856,
3394.563,3.353405,
3390.705,3.548268,
3386.848,3.689678,
3382.990,3.790496,
3379.133,3.86208,
3375.276,3.912257,
3371.418,3.946388,
3367.561,3.968897,
3363.703,3.98444,
3359.846,3.996526,
3355.988,4.006543,
3352.131,4.014147,
3348.273,4.018154,
3344.416,4.018342,
3340.558,4.016301,
3336.701,4.015099,
3332.844,4.01672,
3328.986,4.020056,
3325.129,4.023021,
3321.271,4.024613,
3317.414,4.024515,
3313.556,4.023095,
3309.699,4.021469,
3305.841,4.020104,
3301.984,4.01782,
3298.126,4.012886,
3294.269,4.005295,
3290.411,3.996849,
3286.554,3.988919,
3282.697,3.98156,
3278.839,3.97487,
3274.982,3.969845,
3271.124,3.966727,
3267.267,3.963887,
3263.409,3.959631,
3259.552,3.95386,
3255.694,3.947627,
3251.837,3.941455,
3247.979,3.934697,
3244.122,3.92725,
3240.265,3.919497,
3236.407,3.910928,
3232.550,3.901558,
3228.692,3.89198,
3224.835,3.8815,
3220.977,3.869014,
3217.120,3.854729,
3213.262,3.839386,
3209.405,3.823044,
3205.547,3.805053,
3201.690,3.784793,
3197.832,3.763158,
3193.975,3.741179,
3190.118,3.718073,
3186.260,3.69311,
3182.403,3.666487,
3178.545,3.638831,
3174.688,3.610794,
3170.830,3.581893,
3166.973,3.551154,
3163.115,3.518341,
3159.258,3.483533,
3155.400,3.447019,
3151.543,3.409922,
3147.686,3.373701,
3143.828,3.338592,
3139.971,3.303106,
3136.113,3.265465,
3132.256,3.225037,
3128.398,3.1818,
3124.541,3.135648,
3120.683,3.087071,
3116.826,3.036947,
3112.968,2.985359,
3109.111,2.931718,
3105.253,2.875767,
3101.396,2.817887,
3097.539,2.758541,
3093.681,2.697818,
3089.824,2.635685,
3085.966,2.573018,
3082.109,2.512765,
3078.251,2.458704,
3074.394,2.411844,
3070.536,2.369338,
3066.679,2.327502,
3062.821,2.283476,
3058.964,2.234755,
3055.107,2.179663,
3051.249,2.116879,
3047.392,2.044201,
3043.534,1.958599,
3039.677,1.856383,
3035.819,1.733304,
3031.962,1.584839,
3028.104,1.406174,
3024.247,1.194145,
3020.389,0.9534696,
3016.532,0.7041746,
3012.675,0.4826063,
3008.817,0.3287701,
3004.960,0.2684304,
3001.102,0.3062856,
2997.245,0.4272355,
2993.387,0.5977831,
2989.530,0.7739553,
2985.672,0.9169622,
2981.815,1.00404,
2977.957,1.029691,
2974.100,1.006191,
2970.242,0.9656031,
2966.385,0.9504272,
2962.528,0.9887816,
2958.670,1.07687,
2954.813,1.18732,
2950.955,1.289715,
2947.098,1.362599,
2943.240,1.394185,
2939.383,1.380252,
2935.525,1.325908,
2931.668,1.250489,
2927.810,1.18796,
2923.953,1.176586,
2920.096,1.239918,
2916.238,1.372373,
2912.381,1.545334,
2908.523,1.727924,
2904.666,1.900764,
2900.808,2.055937,
2896.951,2.191995,
2893.093,2.310201,
2889.236,2.412336,
2885.378,2.499604,
2881.521,2.572541,
2877.663,2.631726,
2873.806,2.678157,
2869.949,2.713227,
2866.091,2.738942,
2862.234,2.758123,
2858.376,2.774709,
2854.519,2.793619,
2850.661,2.819256,
2846.804,2.854766,
2842.946,2.903132,
2839.089,2.966094,
2835.231,3.04085,
2831.374,3.12006,
2827.517,3.19561,
2823.659,3.262168,
2819.802,3.317563,
2815.944,3.36121,
2812.087,3.393058,
2808.229,3.413071,
2804.372,3.42099,
2800.514,3.416783,
2796.657,3.401262,
2792.799,3.376696,
2788.942,3.348335,
2785.085,3.32709,
2781.227,3.329852,
2777.370,3.370755,
2773.512,3.447901,
2769.655,3.542717,
2765.797,3.63427,
2761.940,3.711189,
2758.082,3.77173,
2754.225,3.818396,
2750.367,3.854173,
2746.510,3.881544,
2742.652,3.903051,
2738.795,3.921017,
2734.938,3.936249,
2731.080,3.948629,
2727.223,3.958673,
2723.365,3.967296,
2719.508,3.974949,
2715.650,3.981272,
2711.793,3.985591,
2707.935,3.988163,
2704.078,3.990472,
2700.220,3.994705,
2696.363,4.003044,
2692.506,4.016234,
2688.648,4.032519,
2684.791,4.048629,
2680.933,4.061933,
2677.076,4.071486,
2673.218,4.07734,
2669.361,4.079793,
2665.503,4.079782,
2661.646,4.079281,
2657.788,4.080532,
2653.931,4.084754,
2650.073,4.091649,
2646.216,4.099845,
2642.359,4.108139,
2638.501,4.116357,
2634.644,4.124439,
2630.786,4.131831,
2626.929,4.138029,
2623.071,4.142459,
2619.214,4.144468,
2615.356,4.143876,
2611.499,4.140358,
2607.641,4.132496,
2603.784,4.118207,
2599.927,4.094357,
2596.069,4.055887,
2592.212,3.99741,
2588.354,3.916935,
2584.497,3.821916,
2580.639,3.736299,
2576.782,3.697413,
2572.924,3.730121,
2569.067,3.819264,
2565.209,3.921816,
2561.352,4.005396,
2557.494,4.06273,
2553.637,4.098961,
2549.780,4.120391,
2545.922,4.132048,
2542.065,4.13728,
2538.207,4.137705,
2534.350,4.134917,
2530.492,4.131055,
2526.635,4.127434,
2522.777,4.123816,
2518.920,4.118892,
2515.062,4.111427,
2511.205,4.101052,
2507.348,4.089449,
2503.490,4.080747,
2499.633,4.078937,
2495.775,4.084733,
2491.918,4.095336,
2488.060,4.107138,
2484.203,4.117432,
2480.345,4.12429,
2476.488,4.126493,
2472.630,4.123513,
2468.773,4.114594,
2464.916,4.097691,
2461.058,4.069603,
2457.201,4.026955,
2453.343,3.969923,
2449.486,3.907605,
2445.628,3.857466,
2441.771,3.835168,
2437.913,3.844807,
2434.056,3.878067,
2430.198,3.919927,
2426.341,3.959688,
2422.483,3.996598,
2418.626,4.0334,
2414.769,4.069378,
2410.911,4.10095,
2407.054,4.126066,
2403.196,4.145008,
2399.339,4.159047,
2395.481,4.169227,
2391.624,4.174791,
2387.766,4.169866,
2383.909,4.138757,
2380.051,4.058788,
2376.194,3.917294,
2372.337,3.732187,
2368.479,3.551047,
2364.622,3.427506,
2360.764,3.401587,
2356.907,3.492384,
2353.049,3.654268,
2349.192,3.7511,
2345.334,3.701112,
2341.477,3.591361,
2337.619,3.53359,
2333.762,3.54122,
2329.904,3.589296,
2326.047,3.662972,
2322.190,3.750497,
2318.332,3.839275,
2314.475,3.9177,
2310.617,3.978811,
2306.760,4.021269,
2302.902,4.046999,
2299.045,4.058838,
2295.187,4.059864,
2291.330,4.05251,
2287.472,4.037334,
2283.615,4.012908,
2279.758,3.978621,
2275.900,3.936873,
2272.043,3.892107,
2268.185,3.851255,
2264.328,3.823856,
2260.470,3.818208,
2256.613,3.835701,
2252.755,3.869011,
2248.898,3.905837,
2245.040,3.935533,
2241.183,3.954629,
2237.326,3.96666,
2233.468,3.978176,
2229.611,3.994756,
2225.753,4.018284,
2221.896,4.046278,
2218.038,4.073667,
2214.181,4.096168,
2210.323,4.112265,
2206.466,4.123157,
2202.608,4.131549,
2198.751,4.139391,
2194.893,4.146085,
2191.036,4.14931,
2187.179,4.147253,
2183.321,4.139196,
2179.464,4.124396,
2175.606,4.100714,
2171.749,4.064301,
2167.891,4.009906,
2164.034,3.930883,
2160.176,3.821573,
2156.319,3.685037,
2152.461,3.542725,
2148.604,3.432168,
2144.747,3.384865,
2140.889,3.403151,
2137.032,3.459879,
2133.174,3.518511,
2129.317,3.555523,
2125.459,3.572152,
2121.602,3.588451,
2117.744,3.623065,
2113.887,3.67787,
2110.029,3.74332,
2106.172,3.81416,
2102.314,3.891444,
2098.457,3.971477,
2094.600,4.043876,
2090.742,4.10139,
2086.885,4.144549,
2083.027,4.176795,
2079.170,4.200676,
2075.312,4.217936,
2071.455,4.229693,
2067.597,4.2373,
2063.740,4.243155,
2059.882,4.24893,
2056.025,4.254179,
2052.168,4.258111,
2048.310,4.260387,
2044.453,4.261407,
2040.595,4.262726,
2036.738,4.264525,
2032.880,4.265014,
2029.023,4.262759,
2025.165,4.256386,
2021.308,4.24405,
2017.450,4.225459,
2013.593,4.199414,
2009.735,4.162234,
2005.878,4.117753,
2002.021,4.081705,
1998.163,4.068624,
1994.306,4.080946,
1990.448,4.112316,
1986.591,4.150624,
1982.733,4.182122,
1978.876,4.202372,
1975.018,4.213942,
1971.161,4.219239,
1967.303,4.223258,
1963.446,4.230083,
1959.589,4.237112,
1955.731,4.241494,
1951.874,4.242858,
1948.016,4.238338,
1944.159,4.232092,
1940.301,4.234361,
1936.444,4.241435,
1932.586,4.242218,
1928.729,4.233632,
1924.871,4.216231,
1921.014,4.197732,
1917.157,4.192678,
1913.299,4.198257,
1909.442,4.19874,
1905.584,4.191037,
1901.727,4.175777,
1897.869,4.149021,
1894.012,4.112741,
1890.154,4.080628,
1886.297,4.067445,
1882.439,4.069857,
1878.582,4.06926,
1874.724,4.045231,
1870.867,4.000829,
1867.010,3.966966,
1863.152,3.945537,
1859.295,3.905288,
1855.437,3.836839,
1851.580,3.742469,
1847.722,3.631359,
1843.865,3.547787,
1840.007,3.50893,
1836.150,3.459945,
1832.292,3.363503,
1828.435,3.245362,
1824.578,3.127547,
1820.720,2.993594,
1816.863,2.822267,
1813.005,2.617885,
1809.148,2.400117,
1805.290,2.183314,
1801.433,1.981539,
1797.575,1.811334,
1793.718,1.685261,
1789.860,1.606015,
1786.003,1.548969,
1782.145,1.475001,
1778.288,1.357333,
1774.431,1.188067,
1770.573,0.9833792,
1766.716,0.7575385,
1762.858,0.5157748,
1759.001,0.2915153,
1755.143,0.1321356,
1751.286,0.05246631,
1747.428,0.02786803,
1743.571,0.02293743,
1739.713,0.01749874,
1735.856,0.009269572,
1731.999,0.002983021,
1728.141,0.0001949588,
1724.284,1E-10,
1720.426,1E-10,
1716.569,1E-10,
1712.711,1E-10,
1708.854,1E-10,
1704.996,0.0006572409,
1701.139,0.008765856,
1697.281,0.03895542,
1693.424,0.1040816,
1689.567,0.1977791,
1685.709,0.3010919,
1681.852,0.395166,
1677.994,0.4904104,
1674.137,0.6559963,
1670.279,0.9389344,
1666.422,1.278411,
1662.564,1.57311,
1658.707,1.75566,
1654.849,1.848128,
1650.992,1.954999,
1647.134,2.115911,
1643.277,2.267402,
1639.420,2.35925,
1635.562,2.430479,
1631.705,2.528263,
1627.847,2.61413,
1623.990,2.654161,
1620.132,2.669115,
1616.275,2.694216,
1612.417,2.742008,
1608.560,2.773218,
1604.702,2.764572,
1600.845,2.729489,
1596.988,2.674154,
1593.130,2.601202,
1589.273,2.517439,
1585.415,2.429313,
1581.558,2.330367,
1577.700,2.232488,
1573.843,2.171326,
1569.985,2.146718,
1566.128,2.106353,
1562.270,2.020637,
1558.413,1.967789,
1554.555,2.013623,
1550.698,2.073823,
1546.841,2.048838,
1542.983,1.971269,
1539.126,1.947143,
1535.268,1.99559,
1531.411,2.034673,
1527.553,2.014733,
1523.696,1.964294,
1519.838,1.940914,
1515.981,1.945827,
1512.123,1.912738,
1508.266,1.841759,
1504.409,1.7998,
1500.551,1.770637,
1496.694,1.700173,
1492.836,1.598875,
1488.979,1.493103,
1485.121,1.391207,
1481.264,1.280216,
1477.406,1.137733,
1473.549,0.9725549,
1469.691,0.8042496,
1465.834,0.6335997,
1461.976,0.4645841,
1458.119,0.316325,
1454.262,0.2031314,
1450.404,0.1225353,
1446.547,0.06768202,
1442.689,0.0352645,
1438.832,0.02071207,
1434.974,0.01622055,
1431.117,0.01512683,
1427.259,0.01376314,
1423.402,0.0120504,
1419.544,0.01369171,
1415.687,0.02333825,
1411.830,0.04488496,
1407.972,0.07798125,
1404.115,0.1158414,
1400.257,0.1472953,
1396.400,0.1622736,
1392.542,0.1554749,
1388.685,0.1269403,
1384.827,0.08516175,
1380.970,0.04458223,
1377.112,0.01680199,
1373.255,0.003856385,
1369.398,5.064396E-5,
1365.540,1E-10,
1361.683,1E-10,
1357.825,1E-10,
1353.968,0.0009935667,
1350.110,0.0106601,
1346.253,0.04680237,
1342.395,0.1335272,
1338.538,0.2825196,
1334.680,0.4809964,
1330.823,0.701639,
1326.965,0.9199607,
1323.108,1.124732,
1319.251,1.320453,
1315.393,1.518723,
1311.536,1.720369,
1307.678,1.910155,
1303.821,2.072582,
1299.963,2.203027,
1296.106,2.304112,
1292.248,2.379117,
1288.391,2.430123,
1284.533,2.45811,
1280.676,2.46236,
1276.819,2.441713,
1272.961,2.395413,
1269.104,2.323279,
1265.246,2.224211,
1261.389,2.095589,
1257.531,1.933768,
1253.674,1.732139,
1249.816,1.482252,
1245.959,1.179563,
1242.101,0.8347178,
1238.244,0.4902568,
1234.386,0.2173849,
1230.529,0.06411026,
1226.672,0.01000185,
1222.814,1E-10,
1218.957,0.001144812,
1215.099,0.01632133,
1211.242,0.07562811,
1207.384,0.2106138,
1203.527,0.4088559,
1199.669,0.6249695,
1195.812,0.8513944,
1191.954,1.109519,
1188.097,1.380312,
1184.240,1.62131,
1180.382,1.817403,
1176.525,1.972957,
1172.667,2.092912,
1168.810,2.182054,
1164.952,2.245322,
1161.095,2.287513,
1157.237,2.312591,
1153.380,2.323054,
1149.522,2.320455,
1145.665,2.306129,
1141.807,2.281154,
1137.950,2.245792,
1134.093,2.199497,
1130.235,2.141074,
1126.378,2.068935,
1122.520,1.980778,
1118.663,1.872551,
1114.805,1.737341,
1110.948,1.563716,
1107.090,1.334708,
1103.233,1.038765,
1099.375,0.7067752,
1095.518,0.4412947,
1091.661,0.3662017,
1087.803,0.5156014,
1083.946,0.7940467,
1080.088,1.063732,
1076.231,1.246858,
1072.373,1.338499,
1068.516,1.365647,
1064.658,1.360247,
1060.801,1.347573,
1056.943,1.337699,
1053.086,1.326577,
1049.229,1.307404,
1045.371,1.278768,
1041.514,1.24281,
1037.656,1.201586,
1033.799,1.156373,
1029.941,1.108066,
1026.084,1.057333,
1022.226,1.004811,
1018.369,0.9512861,
1014.511,0.8975664,
1010.654,0.8441772,
1006.796,0.7911236,
1002.939,0.7384438,
999.082,0.686079,
995.224,0.63375,
991.367,0.5815172,
987.509,0.5304943,
983.652,0.4831214,
979.794,0.4412709,
975.937,0.4040785,
972.079,0.3689916,
968.222,0.3345002,
964.364,0.3006631,
960.507,0.2679962,
956.650,0.2368796,
952.792,0.2074323,
948.935,0.1798316,
945.077,0.1543312,
941.220,0.1310974,
937.362,0.1100829,
933.505,0.09107554,
929.647,0.07405649,
925.790,0.05917859,
921.932,0.04643082,
918.075,0.03550271,
914.217,0.02623155,
910.360,0.01873144,
906.503,0.01322373,
902.645,0.009720797,
898.788,0.007865964,
894.930,0.007175954,
891.073,0.006946906,
887.215,0.006601912,
883.358,0.005866987,
879.500,0.004776224,
875.643,0.003613428,
871.785,0.002492876,
867.928,0.001496297,
864.071,0.0007457447,
860.213,0.0003739808,
856.356,0.0001417152,
852.498,1E-10,
848.641,1E-10,
844.783,1E-10,
840.926,1E-10,
837.068,1E-10,
833.211,1E-10,
829.353,1E-10,
825.496,1E-10,
821.639,1E-10,
817.781,0.0001587866,
813.924,0.0005544689,
810.066,0.0008114277,
806.209,0.001205844,
802.351,0.001659516,
798.494,0.001983151,
794.636,0.002209836,
790.779,0.002381854,
786.921,0.002477521,
783.064,0.00241555,
779.206,0.002275459,
775.349,0.002177265,
771.492,0.002187826,
767.634,0.002209373,
763.777,0.002183527,
759.919,0.002160281,
756.062,0.002164441,
752.204,0.002089776,
748.347,0.002057011,
744.489,0.002244442,
740.632,0.002560218,
736.774,0.002850753,
732.917,0.003000113,
729.060,0.003065633,
725.202,0.003120299,
721.345,0.003134931,
717.487,0.003072126,
713.630,0.002995053,
709.772,0.00316459,
705.915,0.003728643,
702.057,0.004238798,
698.200,0.004134515,
694.342,0.003776091,
690.485,0.003650382,
686.627,0.00358109,
682.770,0.003351314,
678.913,0.003107871,
675.055,0.00310487,
671.198,0.003318731,
667.340,0.003595247,
663.483,0.003686883,
659.625,0.003633547,
655.768,0.003787199,
651.910,0.004087657,
648.053,0.004215696,
644.195,0.004095391,
640.338,0.003732387,
636.481,0.002984985,
632.623,0.002390883,
628.766,0.002678147,
624.908,0.003490534,
621.051,0.003930716,
617.193,0.003837652,
613.336,0.004074814,
609.478,0.004668551,
605.621,0.004724829,
601.763,0.004511393,
597.906,0.004678056,
594.048,0.005020919,
590.191,0.005255729,
586.334,0.005152488,
582.476,0.004522327,
578.619,0.0041788,
574.761,0.004964401,
570.904,0.006281093,
567.046,0.007054289,
563.189,0.007034127,
559.331,0.006608292,
555.474,0.006339108,
551.616,0.006587006,
547.759,0.007062565,
543.902,0.007372553,
540.044,0.00742397,
536.187,0.007478489,
532.329,0.007926616,
528.472,0.008605721,
524.614,0.009082743,
520.757,0.009308075,
516.899,0.009643895,
513.042,0.01052777,
509.184,0.01174183,
505.327,0.01230881,
501.470,0.01250754,
497.612,0.01338349,
493.755,0.01436947,
489.897,0.01488771,
486.040,0.01532834,
482.182,0.01566666,
478.325,0.01602869,
474.467,0.01747322,
470.610,0.02003763,
466.752,0.02234468,
462.895,0.02359745,
459.037,0.02369199,
455.180,0.0231525,
451.323,0.02330412,
447.465,0.02581314,
443.608,0.0298447,
439.750,0.03296323,
435.893,0.03523259,
432.035,0.03690313,
428.178,0.03799814,
424.320,0.04184202,
420.463,0.0519418,
416.605,0.06330561,
412.748,0.06849044,
408.891,0.07102759,
405.033,0.07629243,
401.176,0.08189297,
397.318,0.08814679,
