,d2o035,
Wavenumbers [1/cm],Transmittance %,
7000.000,14.7,
6999.000,14.71,
6998.000,14.73,
6997.000,14.74,
6996.000,14.76,
6995.000,14.76,
6994.000,14.77,
6993.000,14.76,
6992.000,14.76,
6991.000,14.76,
6990.000,14.76,
6989.000,14.75,
6988.000,14.75,
6987.000,14.74,
6986.000,14.74,
6985.000,14.72,
6984.000,14.7,
6983.000,14.68,
6982.000,14.66,
6981.000,14.64,
6980.000,14.62,
6979.000,14.6,
6978.000,14.57,
6977.000,14.55,
6976.000,14.52,
6975.000,14.5,
6974.000,14.47,
6973.000,14.45,
6972.000,14.41,
6971.000,14.38,
6970.000,14.34,
6969.000,14.3,
6968.000,14.25,
6967.000,14.21,
6966.000,14.16,
6965.000,14.13,
6964.000,14.1,
6963.000,14.06,
6962.000,14.02,
6961.000,13.98,
6960.000,13.93,
6959.000,13.88,
6958.000,13.83,
6957.000,13.77,
6956.000,13.72,
6955.000,13.68,
6954.000,13.63,
6953.000,13.58,
6952.000,13.53,
6951.000,13.49,
6950.000,13.44,
6949.000,13.4,
6948.000,13.35,
6947.000,13.3,
6946.000,13.25,
6945.000,13.2,
6944.000,13.14,
6943.000,13.09,
6942.000,13.04,
6941.000,13,
6940.000,12.95,
6939.000,12.91,
6938.000,12.86,
6937.000,12.81,
6936.000,12.76,
6935.000,12.7,
6934.000,12.64,
6933.000,12.59,
6932.000,12.54,
6931.000,12.49,
6930.000,12.44,
6929.000,12.39,
6928.000,12.33,
6927.000,12.28,
6926.000,12.22,
6925.000,12.16,
6924.000,12.11,
6923.000,12.07,
6922.000,12.03,
6921.000,11.98,
6920.000,11.94,
6919.000,11.89,
6918.000,11.84,
6917.000,11.79,
6916.000,11.73,
6915.000,11.67,
6914.000,11.6,
6913.000,11.54,
6912.000,11.48,
6911.000,11.43,
6910.000,11.37,
6909.000,11.32,
6908.000,11.27,
6907.000,11.23,
6906.000,11.18,
6905.000,11.14,
6904.000,11.1,
6903.000,11.06,
6902.000,11.01,
6901.000,10.96,
6900.000,10.91,
6899.000,10.86,
6898.000,10.81,
6897.000,10.76,
6896.000,10.71,
6895.000,10.66,
6894.000,10.62,
6893.000,10.57,
6892.000,10.52,
6891.000,10.47,
6890.000,10.42,
6889.000,10.37,
6888.000,10.32,
6887.000,10.28,
6886.000,10.24,
6885.000,10.19,
6884.000,10.14,
6883.000,10.09,
6882.000,10.05,
6881.000,10,
6880.000,9.96,
6879.000,9.91,
6878.000,9.87,
6877.000,9.82,
6876.000,9.78,
6875.000,9.73,
6874.000,9.67,
6873.000,9.62,
6872.000,9.58,
6871.000,9.54,
6870.000,9.51,
6869.000,9.47,
6868.000,9.43,
6867.000,9.39,
6866.000,9.36,
6865.000,9.32,
6864.000,9.28,
6863.000,9.23,
6862.000,9.19,
6861.000,9.15,
6860.000,9.1,
6859.000,9.06,
6858.000,9.01,
6857.000,8.97,
6856.000,8.92,
6855.000,8.88,
6854.000,8.85,
6853.000,8.82,
6852.000,8.78,
6851.000,8.75,
6850.000,8.71,
6849.000,8.67,
6848.000,8.63,
6847.000,8.59,
6846.000,8.55,
6845.000,8.51,
6844.000,8.47,
6843.000,8.43,
6842.000,8.4,
6841.000,8.36,
6840.000,8.33,
6839.000,8.29,
6838.000,8.26,
6837.000,8.23,
6836.000,8.19,
6835.000,8.16,
6834.000,8.13,
6833.000,8.09,
6832.000,8.05,
6831.000,8.01,
6830.000,7.97,
6829.000,7.92,
6828.000,7.88,
6827.000,7.85,
6826.000,7.81,
6825.000,7.77,
6824.000,7.73,
6823.000,7.7,
6822.000,7.66,
6821.000,7.62,
6820.000,7.59,
6819.000,7.55,
6818.000,7.52,
6817.000,7.49,
6816.000,7.46,
6815.000,7.43,
6814.000,7.39,
6813.000,7.36,
6812.000,7.32,
6811.000,7.28,
6810.000,7.25,
6809.000,7.22,
6808.000,7.19,
6807.000,7.15,
6806.000,7.11,
6805.000,7.07,
6804.000,7.04,
6803.000,7.02,
6802.000,6.99,
6801.000,6.95,
6800.000,6.92,
6799.000,6.9,
6798.000,6.87,
6797.000,6.83,
6796.000,6.78,
6795.000,6.74,
6794.000,6.71,
6793.000,6.69,
6792.000,6.66,
6791.000,6.64,
6790.000,6.61,
6789.000,6.58,
6788.000,6.55,
6787.000,6.51,
6786.000,6.48,
6785.000,6.44,
6784.000,6.4,
6783.000,6.37,
6782.000,6.34,
6781.000,6.31,
6780.000,6.28,
6779.000,6.26,
6778.000,6.24,
6777.000,6.22,
6776.000,6.19,
6775.000,6.16,
6774.000,6.13,
6773.000,6.1,
6772.000,6.07,
6771.000,6.04,
6770.000,6.01,
6769.000,5.98,
6768.000,5.95,
6767.000,5.92,
6766.000,5.89,
6765.000,5.86,
6764.000,5.83,
6763.000,5.81,
6762.000,5.78,
6761.000,5.75,
6760.000,5.72,
6759.000,5.68,
6758.000,5.65,
6757.000,5.62,
6756.000,5.59,
6755.000,5.56,
6754.000,5.53,
6753.000,5.51,
6752.000,5.49,
6751.000,5.46,
6750.000,5.44,
6749.000,5.41,
6748.000,5.38,
6747.000,5.36,
6746.000,5.34,
6745.000,5.31,
6744.000,5.29,
6743.000,5.27,
6742.000,5.24,
6741.000,5.22,
6740.000,5.2,
6739.000,5.18,
6738.000,5.15,
6737.000,5.12,
6736.000,5.1,
6735.000,5.08,
6734.000,5.06,
6733.000,5.03,
6732.000,5.01,
6731.000,4.98,
6730.000,4.95,
6729.000,4.93,
6728.000,4.9,
6727.000,4.86,
6726.000,4.84,
6725.000,4.82,
6724.000,4.8,
6723.000,4.79,
6722.000,4.76,
6721.000,4.73,
6720.000,4.71,
6719.000,4.68,
6718.000,4.66,
6717.000,4.63,
6716.000,4.6,
6715.000,4.58,
6714.000,4.57,
6713.000,4.55,
6712.000,4.52,
6711.000,4.49,
6710.000,4.47,
6709.000,4.44,
6708.000,4.42,
6707.000,4.41,
6706.000,4.4,
6705.000,4.38,
6704.000,4.37,
6703.000,4.35,
6702.000,4.33,
6701.000,4.31,
6700.000,4.28,
6699.000,4.25,
6698.000,4.23,
6697.000,4.21,
6696.000,4.18,
6695.000,4.16,
6694.000,4.13,
6693.000,4.11,
6692.000,4.09,
6691.000,4.08,
6690.000,4.06,
6689.000,4.05,
6688.000,4.03,
6687.000,4.01,
6686.000,3.99,
6685.000,3.97,
6684.000,3.95,
6683.000,3.92,
6682.000,3.9,
6681.000,3.89,
6680.000,3.87,
6679.000,3.85,
6678.000,3.84,
6677.000,3.84,
6676.000,3.83,
6675.000,3.82,
6674.000,3.8,
6673.000,3.78,
6672.000,3.75,
6671.000,3.73,
6670.000,3.7,
6669.000,3.68,
6668.000,3.66,
6667.000,3.64,
6666.000,3.63,
6665.000,3.62,
6664.000,3.6,
6663.000,3.59,
6662.000,3.57,
6661.000,3.55,
6660.000,3.54,
6659.000,3.52,
6658.000,3.51,
6657.000,3.49,
6656.000,3.47,
6655.000,3.46,
6654.000,3.45,
6653.000,3.44,
6652.000,3.43,
6651.000,3.42,
6650.000,3.42,
6649.000,3.42,
6648.000,3.41,
6647.000,3.4,
6646.000,3.37,
6645.000,3.35,
6644.000,3.32,
6643.000,3.29,
6642.000,3.27,
6641.000,3.26,
6640.000,3.25,
6639.000,3.25,
6638.000,3.25,
6637.000,3.25,
6636.000,3.25,
6635.000,3.24,
6634.000,3.23,
6633.000,3.22,
6632.000,3.21,
6631.000,3.2,
6630.000,3.2,
6629.000,3.19,
6628.000,3.18,
6627.000,3.17,
6626.000,3.16,
6625.000,3.15,
6624.000,3.14,
6623.000,3.13,
6622.000,3.12,
6621.000,3.11,
6620.000,3.11,
6619.000,3.1,
6618.000,3.1,
6617.000,3.09,
6616.000,3.09,
6615.000,3.09,
6614.000,3.09,
6613.000,3.09,
6612.000,3.08,
6611.000,3.08,
6610.000,3.07,
6609.000,3.07,
6608.000,3.07,
6607.000,3.06,
6606.000,3.05,
6605.000,3.05,
6604.000,3.06,
6603.000,3.06,
6602.000,3.05,
6601.000,3.05,
6600.000,3.05,
6599.000,3.05,
6598.000,3.06,
6597.000,3.06,
6596.000,3.06,
6595.000,3.06,
6594.000,3.06,
6593.000,3.06,
6592.000,3.07,
6591.000,3.07,
6590.000,3.07,
6589.000,3.07,
6588.000,3.07,
6587.000,3.07,
6586.000,3.07,
6585.000,3.08,
6584.000,3.08,
6583.000,3.09,
6582.000,3.1,
6581.000,3.11,
6580.000,3.11,
6579.000,3.12,
6578.000,3.12,
6577.000,3.12,
6576.000,3.12,
6575.000,3.13,
6574.000,3.14,
6573.000,3.15,
6572.000,3.17,
6571.000,3.18,
6570.000,3.19,
6569.000,3.19,
6568.000,3.2,
6567.000,3.2,
6566.000,3.21,
6565.000,3.22,
6564.000,3.24,
6563.000,3.26,
6562.000,3.27,
6561.000,3.29,
6560.000,3.3,
6559.000,3.31,
6558.000,3.32,
6557.000,3.32,
6556.000,3.33,
6555.000,3.34,
6554.000,3.36,
6553.000,3.37,
6552.000,3.38,
6551.000,3.4,
6550.000,3.42,
6549.000,3.44,
6548.000,3.45,
6547.000,3.47,
6546.000,3.49,
6545.000,3.51,
6544.000,3.53,
6543.000,3.55,
6542.000,3.57,
6541.000,3.58,
6540.000,3.6,
6539.000,3.61,
6538.000,3.63,
6537.000,3.65,
6536.000,3.67,
6535.000,3.69,
6534.000,3.71,
6533.000,3.72,
6532.000,3.74,
6531.000,3.76,
6530.000,3.79,
6529.000,3.81,
6528.000,3.84,
6527.000,3.86,
6526.000,3.89,
6525.000,3.91,
6524.000,3.94,
6523.000,3.97,
6522.000,4,
6521.000,4.03,
6520.000,4.06,
6519.000,4.09,
6518.000,4.12,
6517.000,4.15,
6516.000,4.17,
6515.000,4.2,
6514.000,4.23,
6513.000,4.26,
6512.000,4.29,
6511.000,4.32,
6510.000,4.35,
6509.000,4.38,
6508.000,4.42,
6507.000,4.45,
6506.000,4.49,
6505.000,4.53,
6504.000,4.57,
6503.000,4.6,
6502.000,4.64,
6501.000,4.68,
6500.000,4.72,
6499.000,4.76,
6498.000,4.8,
6497.000,4.83,
6496.000,4.86,
6495.000,4.9,
6494.000,4.93,
6493.000,4.97,
6492.000,5.01,
6491.000,5.06,
6490.000,5.11,
6489.000,5.16,
6488.000,5.2,
6487.000,5.25,
6486.000,5.29,
6485.000,5.33,
6484.000,5.37,
6483.000,5.42,
6482.000,5.47,
6481.000,5.52,
6480.000,5.57,
6479.000,5.63,
6478.000,5.68,
6477.000,5.74,
6476.000,5.8,
6475.000,5.85,
6474.000,5.91,
6473.000,5.96,
6472.000,6.02,
6471.000,6.07,
6470.000,6.12,
6469.000,6.17,
6468.000,6.22,
6467.000,6.28,
6466.000,6.33,
6465.000,6.39,
6464.000,6.45,
6463.000,6.51,
6462.000,6.58,
6461.000,6.64,
6460.000,6.7,
6459.000,6.77,
6458.000,6.83,
6457.000,6.9,
6456.000,6.97,
6455.000,7.04,
6454.000,7.11,
6453.000,7.18,
6452.000,7.25,
6451.000,7.32,
6450.000,7.39,
6449.000,7.46,
6448.000,7.53,
6447.000,7.6,
6446.000,7.68,
6445.000,7.75,
6444.000,7.83,
6443.000,7.91,
6442.000,7.99,
6441.000,8.06,
6440.000,8.14,
6439.000,8.21,
6438.000,8.29,
6437.000,8.36,
6436.000,8.44,
6435.000,8.51,
6434.000,8.59,
6433.000,8.67,
6432.000,8.76,
6431.000,8.84,
6430.000,8.93,
6429.000,9.01,
6428.000,9.09,
6427.000,9.18,
6426.000,9.26,
6425.000,9.34,
6424.000,9.42,
6423.000,9.51,
6422.000,9.59,
6421.000,9.68,
6420.000,9.77,
6419.000,9.85,
6418.000,9.94,
6417.000,10.02,
6416.000,10.1,
6415.000,10.19,
6414.000,10.27,
6413.000,10.35,
6412.000,10.43,
6411.000,10.51,
6410.000,10.6,
6409.000,10.68,
6408.000,10.76,
6407.000,10.85,
6406.000,10.94,
6405.000,11.02,
6404.000,11.1,
6403.000,11.19,
6402.000,11.27,
6401.000,11.35,
6400.000,11.43,
6399.000,11.52,
6398.000,11.6,
6397.000,11.67,
6396.000,11.75,
6395.000,11.82,
6394.000,11.89,
6393.000,11.95,
6392.000,12.02,
6391.000,12.09,
6390.000,12.16,
6389.000,12.23,
6388.000,12.3,
6387.000,12.37,
6386.000,12.43,
6385.000,12.49,
6384.000,12.54,
6383.000,12.59,
6382.000,12.64,
6381.000,12.69,
6380.000,12.74,
6379.000,12.79,
6378.000,12.83,
6377.000,12.88,
6376.000,12.91,
6375.000,12.95,
6374.000,12.98,
6373.000,13.01,
6372.000,13.04,
6371.000,13.07,
6370.000,13.1,
6369.000,13.12,
6368.000,13.14,
6367.000,13.17,
6366.000,13.18,
6365.000,13.2,
6364.000,13.21,
6363.000,13.23,
6362.000,13.24,
6361.000,13.24,
6360.000,13.24,
6359.000,13.24,
6358.000,13.24,
6357.000,13.23,
6356.000,13.22,
6355.000,13.22,
6354.000,13.21,
6353.000,13.2,
6352.000,13.2,
6351.000,13.19,
6350.000,13.18,
6349.000,13.16,
6348.000,13.14,
6347.000,13.12,
6346.000,13.09,
6345.000,13.06,
6344.000,13.03,
6343.000,13,
6342.000,12.97,
6341.000,12.94,
6340.000,12.9,
6339.000,12.87,
6338.000,12.84,
6337.000,12.81,
6336.000,12.78,
6335.000,12.74,
6334.000,12.7,
6333.000,12.66,
6332.000,12.62,
6331.000,12.58,
6330.000,12.53,
6329.000,12.49,
6328.000,12.45,
6327.000,12.4,
6326.000,12.36,
6325.000,12.31,
6324.000,12.26,
6323.000,12.22,
6322.000,12.17,
6321.000,12.13,
6320.000,12.08,
6319.000,12.03,
6318.000,11.98,
6317.000,11.94,
6316.000,11.88,
6315.000,11.83,
6314.000,11.77,
6313.000,11.72,
6312.000,11.66,
6311.000,11.61,
6310.000,11.57,
6309.000,11.52,
6308.000,11.47,
6307.000,11.42,
6306.000,11.37,
6305.000,11.31,
6304.000,11.25,
6303.000,11.2,
6302.000,11.14,
6301.000,11.08,
6300.000,11.03,
6299.000,10.98,
6298.000,10.94,
6297.000,10.89,
6296.000,10.85,
6295.000,10.8,
6294.000,10.74,
6293.000,10.69,
6292.000,10.63,
6291.000,10.58,
6290.000,10.53,
6289.000,10.48,
6288.000,10.44,
6287.000,10.39,
6286.000,10.34,
6285.000,10.28,
6284.000,10.22,
6283.000,10.17,
6282.000,10.12,
6281.000,10.07,
6280.000,10.02,
6279.000,9.97,
6278.000,9.92,
6277.000,9.88,
6276.000,9.83,
6275.000,9.78,
6274.000,9.74,
6273.000,9.69,
6272.000,9.65,
6271.000,9.6,
6270.000,9.55,
6269.000,9.49,
6268.000,9.44,
6267.000,9.4,
6266.000,9.35,
6265.000,9.31,
6264.000,9.27,
6263.000,9.22,
6262.000,9.18,
6261.000,9.14,
6260.000,9.09,
6259.000,9.04,
6258.000,8.99,
6257.000,8.95,
6256.000,8.9,
6255.000,8.85,
6254.000,8.81,
6253.000,8.77,
6252.000,8.73,
6251.000,8.69,
6250.000,8.65,
6249.000,8.61,
6248.000,8.56,
6247.000,8.52,
6246.000,8.46,
6245.000,8.41,
6244.000,8.36,
6243.000,8.32,
6242.000,8.29,
6241.000,8.25,
6240.000,8.22,
6239.000,8.19,
6238.000,8.15,
6237.000,8.12,
6236.000,8.08,
6235.000,8.03,
6234.000,7.98,
6233.000,7.94,
6232.000,7.89,
6231.000,7.86,
6230.000,7.82,
6229.000,7.78,
6228.000,7.74,
6227.000,7.69,
6226.000,7.64,
6225.000,7.6,
6224.000,7.55,
6223.000,7.51,
6222.000,7.47,
6221.000,7.43,
6220.000,7.4,
6219.000,7.37,
6218.000,7.33,
6217.000,7.3,
6216.000,7.26,
6215.000,7.23,
6214.000,7.2,
6213.000,7.16,
6212.000,7.12,
6211.000,7.08,
6210.000,7.04,
6209.000,7,
6208.000,6.96,
6207.000,6.93,
6206.000,6.89,
6205.000,6.85,
6204.000,6.81,
6203.000,6.77,
6202.000,6.74,
6201.000,6.7,
6200.000,6.66,
6199.000,6.63,
6198.000,6.6,
6197.000,6.57,
6196.000,6.54,
6195.000,6.5,
6194.000,6.47,
6193.000,6.43,
6192.000,6.4,
6191.000,6.36,
6190.000,6.33,
6189.000,6.3,
6188.000,6.26,
6187.000,6.23,
6186.000,6.2,
6185.000,6.17,
6184.000,6.14,
6183.000,6.1,
6182.000,6.07,
6181.000,6.03,
6180.000,6,
6179.000,5.97,
6178.000,5.94,
6177.000,5.9,
6176.000,5.87,
6175.000,5.83,
6174.000,5.8,
6173.000,5.76,
6172.000,5.72,
6171.000,5.69,
6170.000,5.66,
6169.000,5.63,
6168.000,5.6,
6167.000,5.57,
6166.000,5.54,
6165.000,5.51,
6164.000,5.48,
6163.000,5.44,
6162.000,5.41,
6161.000,5.38,
6160.000,5.35,
6159.000,5.32,
6158.000,5.29,
6157.000,5.25,
6156.000,5.22,
6155.000,5.19,
6154.000,5.16,
6153.000,5.13,
6152.000,5.1,
6151.000,5.08,
6150.000,5.05,
6149.000,5.03,
6148.000,5,
6147.000,4.97,
6146.000,4.94,
6145.000,4.91,
6144.000,4.87,
6143.000,4.84,
6142.000,4.81,
6141.000,4.78,
6140.000,4.75,
6139.000,4.72,
6138.000,4.7,
6137.000,4.67,
6136.000,4.65,
6135.000,4.62,
6134.000,4.59,
6133.000,4.56,
6132.000,4.52,
6131.000,4.49,
6130.000,4.47,
6129.000,4.44,
6128.000,4.42,
6127.000,4.4,
6126.000,4.38,
6125.000,4.35,
6124.000,4.32,
6123.000,4.3,
6122.000,4.27,
6121.000,4.24,
6120.000,4.2,
6119.000,4.18,
6118.000,4.15,
6117.000,4.13,
6116.000,4.11,
6115.000,4.08,
6114.000,4.06,
6113.000,4.04,
6112.000,4.01,
6111.000,3.99,
6110.000,3.96,
6109.000,3.93,
6108.000,3.91,
6107.000,3.89,
6106.000,3.88,
6105.000,3.86,
6104.000,3.83,
6103.000,3.81,
6102.000,3.79,
6101.000,3.76,
6100.000,3.74,
6099.000,3.72,
6098.000,3.7,
6097.000,3.68,
6096.000,3.65,
6095.000,3.63,
6094.000,3.6,
6093.000,3.57,
6092.000,3.54,
6091.000,3.52,
6090.000,3.5,
6089.000,3.47,
6088.000,3.46,
6087.000,3.44,
6086.000,3.42,
6085.000,3.39,
6084.000,3.37,
6083.000,3.35,
6082.000,3.32,
6081.000,3.3,
6080.000,3.28,
6079.000,3.26,
6078.000,3.25,
6077.000,3.23,
6076.000,3.22,
6075.000,3.2,
6074.000,3.18,
6073.000,3.15,
6072.000,3.13,
6071.000,3.11,
6070.000,3.09,
6069.000,3.07,
6068.000,3.05,
6067.000,3.03,
6066.000,3.02,
6065.000,3,
6064.000,2.99,
6063.000,2.97,
6062.000,2.95,
6061.000,2.93,
6060.000,2.91,
6059.000,2.88,
6058.000,2.86,
6057.000,2.84,
6056.000,2.83,
6055.000,2.82,
6054.000,2.8,
6053.000,2.77,
6052.000,2.75,
6051.000,2.73,
6050.000,2.72,
6049.000,2.7,
6048.000,2.69,
6047.000,2.67,
6046.000,2.66,
6045.000,2.64,
6044.000,2.62,
6043.000,2.61,
6042.000,2.59,
6041.000,2.58,
6040.000,2.56,
6039.000,2.55,
6038.000,2.54,
6037.000,2.53,
6036.000,2.52,
6035.000,2.5,
6034.000,2.49,
6033.000,2.48,
6032.000,2.46,
6031.000,2.45,
6030.000,2.44,
6029.000,2.43,
6028.000,2.42,
6027.000,2.41,
6026.000,2.4,
6025.000,2.39,
6024.000,2.37,
6023.000,2.36,
6022.000,2.34,
6021.000,2.33,
6020.000,2.32,
6019.000,2.31,
6018.000,2.3,
6017.000,2.3,
6016.000,2.29,
6015.000,2.29,
6014.000,2.28,
6013.000,2.27,
6012.000,2.26,
6011.000,2.25,
6010.000,2.24,
6009.000,2.24,
6008.000,2.23,
6007.000,2.21,
6006.000,2.2,
6005.000,2.19,
6004.000,2.19,
6003.000,2.18,
6002.000,2.18,
6001.000,2.18,
6000.000,2.17,
5999.000,2.16,
5998.000,2.15,
5997.000,2.14,
5996.000,2.13,
5995.000,2.13,
5994.000,2.13,
5993.000,2.13,
5992.000,2.12,
5991.000,2.12,
5990.000,2.11,
5989.000,2.11,
5988.000,2.11,
5987.000,2.1,
5986.000,2.1,
5985.000,2.1,
5984.000,2.09,
5983.000,2.09,
5982.000,2.08,
5981.000,2.08,
5980.000,2.08,
5979.000,2.09,
5978.000,2.09,
5977.000,2.09,
5976.000,2.09,
5975.000,2.08,
5974.000,2.07,
5973.000,2.07,
5972.000,2.06,
5971.000,2.06,
5970.000,2.06,
5969.000,2.06,
5968.000,2.06,
5967.000,2.06,
5966.000,2.07,
5965.000,2.07,
5964.000,2.07,
5963.000,2.08,
5962.000,2.08,
5961.000,2.09,
5960.000,2.09,
5959.000,2.09,
5958.000,2.09,
5957.000,2.09,
5956.000,2.09,
5955.000,2.09,
5954.000,2.09,
5953.000,2.1,
5952.000,2.1,
5951.000,2.11,
5950.000,2.13,
5949.000,2.13,
5948.000,2.14,
5947.000,2.13,
5946.000,2.13,
5945.000,2.13,
5944.000,2.13,
5943.000,2.13,
5942.000,2.14,
5941.000,2.14,
5940.000,2.15,
5939.000,2.16,
5938.000,2.16,
5937.000,2.17,
5936.000,2.17,
5935.000,2.18,
5934.000,2.18,
5933.000,2.19,
5932.000,2.19,
5931.000,2.2,
5930.000,2.21,
5929.000,2.21,
5928.000,2.22,
5927.000,2.23,
5926.000,2.24,
5925.000,2.24,
5924.000,2.25,
5923.000,2.27,
5922.000,2.28,
5921.000,2.3,
5920.000,2.31,
5919.000,2.32,
5918.000,2.33,
5917.000,2.34,
5916.000,2.35,
5915.000,2.36,
5914.000,2.37,
5913.000,2.38,
5912.000,2.4,
5911.000,2.41,
5910.000,2.43,
5909.000,2.44,
5908.000,2.45,
5907.000,2.46,
5906.000,2.47,
5905.000,2.48,
5904.000,2.5,
5903.000,2.51,
5902.000,2.53,
5901.000,2.55,
5900.000,2.56,
5899.000,2.58,
5898.000,2.59,
5897.000,2.61,
5896.000,2.62,
5895.000,2.64,
5894.000,2.66,
5893.000,2.68,
5892.000,2.7,
5891.000,2.72,
5890.000,2.74,
5889.000,2.76,
5888.000,2.77,
5887.000,2.79,
5886.000,2.8,
5885.000,2.82,
5884.000,2.85,
5883.000,2.87,
5882.000,2.89,
5881.000,2.92,
5880.000,2.94,
5879.000,2.97,
5878.000,2.99,
5877.000,3.01,
5876.000,3.04,
5875.000,3.06,
5874.000,3.09,
5873.000,3.11,
5872.000,3.14,
5871.000,3.16,
5870.000,3.18,
5869.000,3.21,
5868.000,3.23,
5867.000,3.26,
5866.000,3.29,
5865.000,3.33,
5864.000,3.36,
5863.000,3.39,
5862.000,3.42,
5861.000,3.45,
5860.000,3.48,
5859.000,3.51,
5858.000,3.54,
5857.000,3.57,
5856.000,3.6,
5855.000,3.64,
5854.000,3.68,
5853.000,3.72,
5852.000,3.75,
5851.000,3.79,
5850.000,3.83,
5849.000,3.86,
5848.000,3.9,
5847.000,3.94,
5846.000,3.98,
5845.000,4.02,
5844.000,4.07,
5843.000,4.11,
5842.000,4.15,
5841.000,4.2,
5840.000,4.24,
5839.000,4.28,
5838.000,4.31,
5837.000,4.35,
5836.000,4.4,
5835.000,4.45,
5834.000,4.5,
5833.000,4.55,
5832.000,4.59,
5831.000,4.64,
5830.000,4.69,
5829.000,4.74,
5828.000,4.79,
5827.000,4.84,
5826.000,4.9,
5825.000,4.95,
5824.000,5.01,
5823.000,5.06,
5822.000,5.11,
5821.000,5.16,
5820.000,5.22,
5819.000,5.27,
5818.000,5.33,
5817.000,5.39,
5816.000,5.46,
5815.000,5.52,
5814.000,5.58,
5813.000,5.64,
5812.000,5.7,
5811.000,5.77,
5810.000,5.83,
5809.000,5.9,
5808.000,5.96,
5807.000,6.02,
5806.000,6.08,
5805.000,6.14,
5804.000,6.21,
5803.000,6.28,
5802.000,6.36,
5801.000,6.43,
5800.000,6.5,
5799.000,6.58,
5798.000,6.65,
5797.000,6.72,
5796.000,6.79,
5795.000,6.87,
5794.000,6.94,
5793.000,7.02,
5792.000,7.09,
5791.000,7.16,
5790.000,7.24,
5789.000,7.32,
5788.000,7.4,
5787.000,7.49,
5786.000,7.57,
5785.000,7.65,
5784.000,7.73,
5783.000,7.81,
5782.000,7.89,
5781.000,7.97,
5780.000,8.05,
5779.000,8.13,
5778.000,8.22,
5777.000,8.3,
5776.000,8.39,
5775.000,8.47,
5774.000,8.56,
5773.000,8.64,
5772.000,8.71,
5771.000,8.79,
5770.000,8.87,
5769.000,8.95,
5768.000,9.03,
5767.000,9.12,
5766.000,9.2,
5765.000,9.28,
5764.000,9.35,
5763.000,9.43,
5762.000,9.51,
5761.000,9.59,
5760.000,9.67,
5759.000,9.74,
5758.000,9.81,
5757.000,9.87,
5756.000,9.93,
5755.000,10,
5754.000,10.06,
5753.000,10.12,
5752.000,10.18,
5751.000,10.24,
5750.000,10.3,
5749.000,10.36,
5748.000,10.42,
5747.000,10.47,
5746.000,10.52,
5745.000,10.57,
5744.000,10.61,
5743.000,10.66,
5742.000,10.7,
5741.000,10.74,
5740.000,10.78,
5739.000,10.81,
5738.000,10.85,
5737.000,10.88,
5736.000,10.91,
5735.000,10.94,
5734.000,10.96,
5733.000,10.99,
5732.000,11,
5731.000,11.02,
5730.000,11.03,
5729.000,11.04,
5728.000,11.05,
5727.000,11.07,
5726.000,11.08,
5725.000,11.09,
5724.000,11.09,
5723.000,11.1,
5722.000,11.09,
5721.000,11.09,
5720.000,11.09,
5719.000,11.08,
5718.000,11.08,
5717.000,11.06,
5716.000,11.05,
5715.000,11.03,
5714.000,11.01,
5713.000,10.98,
5712.000,10.96,
5711.000,10.93,
5710.000,10.91,
5709.000,10.88,
5708.000,10.85,
5707.000,10.82,
5706.000,10.8,
5705.000,10.77,
5704.000,10.74,
5703.000,10.71,
5702.000,10.68,
5701.000,10.64,
5700.000,10.6,
5699.000,10.57,
5698.000,10.53,
5697.000,10.49,
5696.000,10.45,
5695.000,10.41,
5694.000,10.37,
5693.000,10.32,
5692.000,10.28,
5691.000,10.24,
5690.000,10.19,
5689.000,10.15,
5688.000,10.11,
5687.000,10.06,
5686.000,10.02,
5685.000,9.97,
5684.000,9.93,
5683.000,9.88,
5682.000,9.83,
5681.000,9.78,
5680.000,9.73,
5679.000,9.69,
5678.000,9.64,
5677.000,9.59,
5676.000,9.55,
5675.000,9.5,
5674.000,9.45,
5673.000,9.4,
5672.000,9.35,
5671.000,9.3,
5670.000,9.25,
5669.000,9.2,
5668.000,9.15,
5667.000,9.11,
5666.000,9.06,
5665.000,9.01,
5664.000,8.96,
5663.000,8.91,
5662.000,8.87,
5661.000,8.82,
5660.000,8.77,
5659.000,8.73,
5658.000,8.68,
5657.000,8.63,
5656.000,8.58,
5655.000,8.54,
5654.000,8.49,
5653.000,8.44,
5652.000,8.39,
5651.000,8.34,
5650.000,8.3,
5649.000,8.25,
5648.000,8.2,
5647.000,8.16,
5646.000,8.11,
5645.000,8.07,
5644.000,8.02,
5643.000,7.97,
5642.000,7.93,
5641.000,7.88,
5640.000,7.84,
5639.000,7.79,
5638.000,7.75,
5637.000,7.71,
5636.000,7.67,
5635.000,7.63,
5634.000,7.59,
5633.000,7.54,
5632.000,7.5,
5631.000,7.46,
5630.000,7.41,
5629.000,7.37,
5628.000,7.33,
5627.000,7.29,
5626.000,7.25,
5625.000,7.2,
5624.000,7.16,
5623.000,7.12,
5622.000,7.08,
5621.000,7.04,
5620.000,7,
5619.000,6.97,
5618.000,6.93,
5617.000,6.89,
5616.000,6.85,
5615.000,6.81,
5614.000,6.77,
5613.000,6.73,
5612.000,6.69,
5611.000,6.66,
5610.000,6.62,
5609.000,6.58,
5608.000,6.55,
5607.000,6.51,
5606.000,6.47,
5605.000,6.44,
5604.000,6.41,
5603.000,6.37,
5602.000,6.33,
5601.000,6.29,
5600.000,6.26,
5599.000,6.22,
5598.000,6.18,
5597.000,6.15,
5596.000,6.11,
5595.000,6.08,
5594.000,6.05,
5593.000,6.01,
5592.000,5.98,
5591.000,5.94,
5590.000,5.9,
5589.000,5.87,
5588.000,5.83,
5587.000,5.79,
5586.000,5.76,
5585.000,5.72,
5584.000,5.69,
5583.000,5.65,
5582.000,5.62,
5581.000,5.59,
5580.000,5.56,
5579.000,5.53,
5578.000,5.5,
5577.000,5.46,
5576.000,5.42,
5575.000,5.39,
5574.000,5.35,
5573.000,5.32,
5572.000,5.28,
5571.000,5.25,
5570.000,5.22,
5569.000,5.19,
5568.000,5.15,
5567.000,5.12,
5566.000,5.09,
5565.000,5.06,
5564.000,5.03,
5563.000,4.99,
5562.000,4.96,
5561.000,4.93,
5560.000,4.9,
5559.000,4.87,
5558.000,4.84,
5557.000,4.81,
5556.000,4.78,
5555.000,4.75,
5554.000,4.72,
5553.000,4.69,
5552.000,4.65,
5551.000,4.62,
5550.000,4.59,
5549.000,4.56,
5548.000,4.53,
5547.000,4.5,
5546.000,4.46,
5545.000,4.43,
5544.000,4.4,
5543.000,4.37,
5542.000,4.35,
5541.000,4.32,
5540.000,4.29,
5539.000,4.27,
5538.000,4.24,
5537.000,4.21,
5536.000,4.18,
5535.000,4.15,
5534.000,4.12,
5533.000,4.1,
5532.000,4.07,
5531.000,4.04,
5530.000,4.02,
5529.000,3.99,
5528.000,3.96,
5527.000,3.93,
5526.000,3.91,
5525.000,3.88,
5524.000,3.85,
5523.000,3.82,
5522.000,3.79,
5521.000,3.76,
5520.000,3.73,
5519.000,3.71,
5518.000,3.69,
5517.000,3.67,
5516.000,3.65,
5515.000,3.63,
5514.000,3.6,
5513.000,3.57,
5512.000,3.54,
5511.000,3.51,
5510.000,3.49,
5509.000,3.46,
5508.000,3.44,
5507.000,3.42,
5506.000,3.4,
5505.000,3.38,
5504.000,3.35,
5503.000,3.32,
5502.000,3.3,
5501.000,3.27,
5500.000,3.25,
5499.000,3.23,
5498.000,3.21,
5497.000,3.18,
5496.000,3.16,
5495.000,3.14,
5494.000,3.11,
5493.000,3.09,
5492.000,3.07,
5491.000,3.04,
5490.000,3.02,
5489.000,3,
5488.000,2.98,
5487.000,2.97,
5486.000,2.94,
5485.000,2.92,
5484.000,2.89,
5483.000,2.87,
5482.000,2.84,
5481.000,2.82,
5480.000,2.8,
5479.000,2.78,
5478.000,2.76,
5477.000,2.74,
5476.000,2.72,
5475.000,2.7,
5474.000,2.69,
5473.000,2.67,
5472.000,2.64,
5471.000,2.62,
5470.000,2.6,
5469.000,2.58,
5468.000,2.56,
5467.000,2.54,
5466.000,2.52,
5465.000,2.5,
5464.000,2.48,
5463.000,2.46,
5462.000,2.44,
5461.000,2.42,
5460.000,2.4,
5459.000,2.38,
5458.000,2.36,
5457.000,2.34,
5456.000,2.32,
5455.000,2.3,
5454.000,2.29,
5453.000,2.27,
5452.000,2.25,
5451.000,2.24,
5450.000,2.22,
5449.000,2.2,
5448.000,2.18,
5447.000,2.16,
5446.000,2.15,
5445.000,2.13,
5444.000,2.11,
5443.000,2.1,
5442.000,2.08,
5441.000,2.06,
5440.000,2.05,
5439.000,2.03,
5438.000,2.02,
5437.000,2,
5436.000,1.99,
5435.000,1.97,
5434.000,1.96,
5433.000,1.95,
5432.000,1.93,
5431.000,1.92,
5430.000,1.9,
5429.000,1.89,
5428.000,1.88,
5427.000,1.87,
5426.000,1.85,
5425.000,1.84,
5424.000,1.83,
5423.000,1.82,
5422.000,1.81,
5421.000,1.79,
5420.000,1.77,
5419.000,1.76,
5418.000,1.75,
5417.000,1.74,
5416.000,1.73,
5415.000,1.72,
5414.000,1.71,
5413.000,1.7,
5412.000,1.7,
5411.000,1.69,
5410.000,1.68,
5409.000,1.67,
5408.000,1.66,
5407.000,1.65,
5406.000,1.64,
5405.000,1.62,
5404.000,1.61,
5403.000,1.6,
5402.000,1.59,
5401.000,1.58,
5400.000,1.57,
5399.000,1.56,
5398.000,1.55,
5397.000,1.54,
5396.000,1.54,
5395.000,1.53,
5394.000,1.53,
5393.000,1.52,
5392.000,1.52,
5391.000,1.52,
5390.000,1.51,
5389.000,1.51,
5388.000,1.5,
5387.000,1.5,
5386.000,1.49,
5385.000,1.49,
5384.000,1.48,
5383.000,1.48,
5382.000,1.47,
5381.000,1.47,
5380.000,1.46,
5379.000,1.45,
5378.000,1.45,
5377.000,1.44,
5376.000,1.44,
5375.000,1.44,
5374.000,1.44,
5373.000,1.43,
5372.000,1.43,
5371.000,1.42,
5370.000,1.42,
5369.000,1.41,
5368.000,1.4,
5367.000,1.4,
5366.000,1.4,
5365.000,1.4,
5364.000,1.4,
5363.000,1.4,
5362.000,1.4,
5361.000,1.4,
5360.000,1.39,
5359.000,1.39,
5358.000,1.39,
5357.000,1.38,
5356.000,1.38,
5355.000,1.38,
5354.000,1.38,
5353.000,1.38,
5352.000,1.38,
5351.000,1.38,
5350.000,1.37,
5349.000,1.37,
5348.000,1.37,
5347.000,1.37,
5346.000,1.37,
5345.000,1.37,
5344.000,1.38,
5343.000,1.38,
5342.000,1.39,
5341.000,1.39,
5340.000,1.39,
5339.000,1.4,
5338.000,1.4,
5337.000,1.4,
5336.000,1.4,
5335.000,1.4,
5334.000,1.4,
5333.000,1.39,
5332.000,1.39,
5331.000,1.39,
5330.000,1.39,
5329.000,1.39,
5328.000,1.39,
5327.000,1.39,
5326.000,1.4,
5325.000,1.4,
5324.000,1.4,
5323.000,1.4,
5322.000,1.4,
5321.000,1.4,
5320.000,1.41,
5319.000,1.41,
5318.000,1.41,
5317.000,1.41,
5316.000,1.42,
5315.000,1.42,
5314.000,1.42,
5313.000,1.42,
5312.000,1.42,
5311.000,1.43,
5310.000,1.43,
5309.000,1.44,
5308.000,1.45,
5307.000,1.46,
5306.000,1.47,
5305.000,1.47,
5304.000,1.47,
5303.000,1.47,
5302.000,1.47,
5301.000,1.48,
5300.000,1.48,
5299.000,1.49,
5298.000,1.5,
5297.000,1.5,
5296.000,1.51,
5295.000,1.51,
5294.000,1.52,
5293.000,1.52,
5292.000,1.53,
5291.000,1.53,
5290.000,1.54,
5289.000,1.55,
5288.000,1.55,
5287.000,1.56,
5286.000,1.57,
5285.000,1.58,
5284.000,1.59,
5283.000,1.6,
5282.000,1.6,
5281.000,1.61,
5280.000,1.62,
5279.000,1.63,
5278.000,1.64,
5277.000,1.65,
5276.000,1.65,
5275.000,1.66,
5274.000,1.67,
5273.000,1.68,
5272.000,1.69,
5271.000,1.7,
5270.000,1.71,
5269.000,1.72,
5268.000,1.73,
5267.000,1.74,
5266.000,1.75,
5265.000,1.77,
5264.000,1.78,
5263.000,1.8,
5262.000,1.81,
5261.000,1.82,
5260.000,1.83,
5259.000,1.84,
5258.000,1.85,
5257.000,1.86,
5256.000,1.88,
5255.000,1.89,
5254.000,1.91,
5253.000,1.92,
5252.000,1.94,
5251.000,1.96,
5250.000,1.98,
5249.000,2,
5248.000,2.02,
5247.000,2.04,
5246.000,2.05,
5245.000,2.07,
5244.000,2.08,
5243.000,2.1,
5242.000,2.11,
5241.000,2.13,
5240.000,2.14,
5239.000,2.16,
5238.000,2.18,
5237.000,2.2,
5236.000,2.22,
5235.000,2.24,
5234.000,2.26,
5233.000,2.29,
5232.000,2.31,
5231.000,2.33,
5230.000,2.35,
5229.000,2.38,
5228.000,2.4,
5227.000,2.43,
5226.000,2.45,
5225.000,2.48,
5224.000,2.5,
5223.000,2.53,
5222.000,2.55,
5221.000,2.58,
5220.000,2.61,
5219.000,2.63,
5218.000,2.66,
5217.000,2.68,
5216.000,2.7,
5215.000,2.73,
5214.000,2.76,
5213.000,2.8,
5212.000,2.83,
5211.000,2.87,
5210.000,2.9,
5209.000,2.93,
5208.000,2.97,
5207.000,3,
5206.000,3.04,
5205.000,3.07,
5204.000,3.11,
5203.000,3.15,
5202.000,3.19,
5201.000,3.22,
5200.000,3.26,
5199.000,3.3,
5198.000,3.34,
5197.000,3.38,
5196.000,3.42,
5195.000,3.46,
5194.000,3.5,
5193.000,3.54,
5192.000,3.58,
5191.000,3.63,
5190.000,3.67,
5189.000,3.72,
5188.000,3.77,
5187.000,3.82,
5186.000,3.87,
5185.000,3.92,
5184.000,3.97,
5183.000,4.02,
5182.000,4.07,
5181.000,4.12,
5180.000,4.17,
5179.000,4.23,
5178.000,4.28,
5177.000,4.33,
5176.000,4.39,
5175.000,4.44,
5174.000,4.49,
5173.000,4.55,
5172.000,4.61,
5171.000,4.68,
5170.000,4.74,
5169.000,4.8,
5168.000,4.87,
5167.000,4.93,
5166.000,4.99,
5165.000,5.05,
5164.000,5.11,
5163.000,5.18,
5162.000,5.24,
5161.000,5.31,
5160.000,5.38,
5159.000,5.45,
5158.000,5.52,
5157.000,5.59,
5156.000,5.67,
5155.000,5.74,
5154.000,5.81,
5153.000,5.88,
5152.000,5.95,
5151.000,6.03,
5150.000,6.11,
5149.000,6.18,
5148.000,6.26,
5147.000,6.33,
5146.000,6.41,
5145.000,6.49,
5144.000,6.57,
5143.000,6.64,
5142.000,6.72,
5141.000,6.8,
5140.000,6.88,
5139.000,6.96,
5138.000,7.04,
5137.000,7.12,
5136.000,7.2,
5135.000,7.28,
5134.000,7.36,
5133.000,7.44,
5132.000,7.52,
5131.000,7.6,
5130.000,7.67,
5129.000,7.75,
5128.000,7.83,
5127.000,7.9,
5126.000,7.98,
5125.000,8.06,
5124.000,8.14,
5123.000,8.21,
5122.000,8.28,
5121.000,8.34,
5120.000,8.41,
5119.000,8.48,
5118.000,8.55,
5117.000,8.62,
5116.000,8.68,
5115.000,8.74,
5114.000,8.8,
5113.000,8.85,
5112.000,8.9,
5111.000,8.96,
5110.000,9.01,
5109.000,9.05,
5108.000,9.1,
5107.000,9.15,
5106.000,9.19,
5105.000,9.23,
5104.000,9.26,
5103.000,9.3,
5102.000,9.33,
5101.000,9.36,
5100.000,9.38,
5099.000,9.41,
5098.000,9.43,
5097.000,9.45,
5096.000,9.46,
5095.000,9.47,
5094.000,9.48,
5093.000,9.49,
5092.000,9.49,
5091.000,9.5,
5090.000,9.5,
5089.000,9.49,
5088.000,9.48,
5087.000,9.48,
5086.000,9.46,
5085.000,9.45,
5084.000,9.44,
5083.000,9.42,
5082.000,9.4,
5081.000,9.38,
5080.000,9.35,
5079.000,9.33,
5078.000,9.31,
5077.000,9.28,
5076.000,9.25,
5075.000,9.22,
5074.000,9.19,
5073.000,9.15,
5072.000,9.12,
5071.000,9.09,
5070.000,9.06,
5069.000,9.02,
5068.000,8.98,
5067.000,8.94,
5066.000,8.9,
5065.000,8.86,
5064.000,8.82,
5063.000,8.77,
5062.000,8.73,
5061.000,8.68,
5060.000,8.64,
5059.000,8.6,
5058.000,8.55,
5057.000,8.51,
5056.000,8.46,
5055.000,8.41,
5054.000,8.37,
5053.000,8.32,
5052.000,8.28,
5051.000,8.23,
5050.000,8.18,
5049.000,8.13,
5048.000,8.09,
5047.000,8.04,
5046.000,7.99,
5045.000,7.94,
5044.000,7.9,
5043.000,7.85,
5042.000,7.8,
5041.000,7.76,
5040.000,7.71,
5039.000,7.66,
5038.000,7.61,
5037.000,7.57,
5036.000,7.52,
5035.000,7.47,
5034.000,7.43,
5033.000,7.38,
5032.000,7.33,
5031.000,7.29,
5030.000,7.24,
5029.000,7.19,
5028.000,7.15,
5027.000,7.1,
5026.000,7.06,
5025.000,7.01,
5024.000,6.97,
5023.000,6.92,
5022.000,6.88,
5021.000,6.83,
5020.000,6.79,
5019.000,6.75,
5018.000,6.71,
5017.000,6.67,
5016.000,6.62,
5015.000,6.58,
5014.000,6.53,
5013.000,6.49,
5012.000,6.45,
5011.000,6.41,
5010.000,6.37,
5009.000,6.33,
5008.000,6.29,
5007.000,6.24,
5006.000,6.2,
5005.000,6.16,
5004.000,6.12,
5003.000,6.08,
5002.000,6.05,
5001.000,6.01,
5000.000,5.97,
4999.000,5.93,
4998.000,5.88,
4997.000,5.84,
4996.000,5.8,
4995.000,5.76,
4994.000,5.73,
4993.000,5.69,
4992.000,5.65,
4991.000,5.62,
4990.000,5.58,
4989.000,5.54,
4988.000,5.51,
4987.000,5.47,
4986.000,5.43,
4985.000,5.39,
4984.000,5.35,
4983.000,5.32,
4982.000,5.28,
4981.000,5.25,
4980.000,5.22,
4979.000,5.18,
4978.000,5.14,
4977.000,5.11,
4976.000,5.07,
4975.000,5.04,
4974.000,5.01,
4973.000,4.97,
4972.000,4.94,
4971.000,4.9,
4970.000,4.87,
4969.000,4.83,
4968.000,4.8,
4967.000,4.76,
4966.000,4.73,
4965.000,4.69,
4964.000,4.66,
4963.000,4.63,
4962.000,4.6,
4961.000,4.57,
4960.000,4.54,
4959.000,4.5,
4958.000,4.47,
4957.000,4.44,
4956.000,4.41,
4955.000,4.37,
4954.000,4.34,
4953.000,4.31,
4952.000,4.28,
4951.000,4.25,
4950.000,4.22,
4949.000,4.19,
4948.000,4.15,
4947.000,4.12,
4946.000,4.09,
4945.000,4.06,
4944.000,4.03,
4943.000,4.01,
4942.000,3.98,
4941.000,3.95,
4940.000,3.91,
4939.000,3.88,
4938.000,3.85,
4937.000,3.82,
4936.000,3.79,
4935.000,3.76,
4934.000,3.74,
4933.000,3.71,
4932.000,3.68,
4931.000,3.65,
4930.000,3.62,
4929.000,3.59,
4928.000,3.56,
4927.000,3.53,
4926.000,3.5,
4925.000,3.48,
4924.000,3.46,
4923.000,3.43,
4922.000,3.4,
4921.000,3.37,
4920.000,3.34,
4919.000,3.31,
4918.000,3.28,
4917.000,3.26,
4916.000,3.23,
4915.000,3.21,
4914.000,3.18,
4913.000,3.16,
4912.000,3.13,
4911.000,3.1,
4910.000,3.07,
4909.000,3.05,
4908.000,3.02,
4907.000,2.99,
4906.000,2.97,
4905.000,2.95,
4904.000,2.92,
4903.000,2.9,
4902.000,2.88,
4901.000,2.86,
4900.000,2.83,
4899.000,2.81,
4898.000,2.78,
4897.000,2.76,
4896.000,2.73,
4895.000,2.71,
4894.000,2.68,
4893.000,2.66,
4892.000,2.63,
4891.000,2.61,
4890.000,2.59,
4889.000,2.57,
4888.000,2.55,
4887.000,2.52,
4886.000,2.5,
4885.000,2.48,
4884.000,2.46,
4883.000,2.44,
4882.000,2.42,
4881.000,2.4,
4880.000,2.37,
4879.000,2.35,
4878.000,2.33,
4877.000,2.31,
4876.000,2.29,
4875.000,2.27,
4874.000,2.25,
4873.000,2.22,
4872.000,2.2,
4871.000,2.18,
4870.000,2.16,
4869.000,2.14,
4868.000,2.12,
4867.000,2.1,
4866.000,2.08,
4865.000,2.06,
4864.000,2.04,
4863.000,2.02,
4862.000,2,
4861.000,1.98,
4860.000,1.96,
4859.000,1.94,
4858.000,1.92,
4857.000,1.9,
4856.000,1.88,
4855.000,1.86,
4854.000,1.84,
4853.000,1.82,
4852.000,1.8,
4851.000,1.78,
4850.000,1.77,
4849.000,1.75,
4848.000,1.73,
4847.000,1.72,
4846.000,1.71,
4845.000,1.69,
4844.000,1.68,
4843.000,1.66,
4842.000,1.64,
4841.000,1.62,
4840.000,1.6,
4839.000,1.59,
4838.000,1.57,
4837.000,1.56,
4836.000,1.55,
4835.000,1.53,
4834.000,1.51,
4833.000,1.5,
4832.000,1.48,
4831.000,1.47,
4830.000,1.45,
4829.000,1.44,
4828.000,1.42,
4827.000,1.41,
4826.000,1.4,
4825.000,1.38,
4824.000,1.37,
4823.000,1.36,
4822.000,1.35,
4821.000,1.33,
4820.000,1.32,
4819.000,1.31,
4818.000,1.29,
4817.000,1.28,
4816.000,1.27,
4815.000,1.26,
4814.000,1.25,
4813.000,1.24,
4812.000,1.23,
4811.000,1.22,
4810.000,1.21,
4809.000,1.2,
4808.000,1.19,
4807.000,1.18,
4806.000,1.17,
4805.000,1.16,
4804.000,1.16,
4803.000,1.15,
4802.000,1.14,
4801.000,1.13,
4800.000,1.12,
4799.000,1.11,
4798.000,1.11,
4797.000,1.1,
4796.000,1.1,
4795.000,1.09,
4794.000,1.08,
4793.000,1.07,
4792.000,1.06,
4791.000,1.06,
4790.000,1.05,
4789.000,1.05,
4788.000,1.04,
4787.000,1.03,
4786.000,1.03,
4785.000,1.02,
4784.000,1.02,
4783.000,1.01,
4782.000,1.01,
4781.000,1,
4780.000,0.99,
4779.000,0.98,
4778.000,0.98,
4777.000,0.97,
4776.000,0.97,
4775.000,0.96,
4774.000,0.96,
4773.000,0.96,
4772.000,0.96,
4771.000,0.95,
4770.000,0.95,
4769.000,0.94,
4768.000,0.94,
4767.000,0.93,
4766.000,0.93,
4765.000,0.93,
4764.000,0.92,
4763.000,0.92,
4762.000,0.91,
4761.000,0.91,
4760.000,0.91,
4759.000,0.9,
4758.000,0.9,
4757.000,0.9,
4756.000,0.89,
4755.000,0.89,
4754.000,0.89,
4753.000,0.89,
4752.000,0.89,
4751.000,0.89,
4750.000,0.89,
4749.000,0.88,
4748.000,0.88,
4747.000,0.88,
4746.000,0.88,
4745.000,0.88,
4744.000,0.87,
4743.000,0.87,
4742.000,0.87,
4741.000,0.87,
4740.000,0.86,
4739.000,0.86,
4738.000,0.86,
4737.000,0.86,
4736.000,0.85,
4735.000,0.85,
4734.000,0.85,
4733.000,0.85,
4732.000,0.85,
4731.000,0.85,
4730.000,0.85,
4729.000,0.85,
4728.000,0.85,
4727.000,0.85,
4726.000,0.85,
4725.000,0.85,
4724.000,0.85,
4723.000,0.85,
4722.000,0.85,
4721.000,0.85,
4720.000,0.85,
4719.000,0.85,
4718.000,0.85,
4717.000,0.85,
4716.000,0.85,
4715.000,0.85,
4714.000,0.85,
4713.000,0.85,
4712.000,0.85,
4711.000,0.85,
4710.000,0.85,
4709.000,0.85,
4708.000,0.85,
4707.000,0.85,
4706.000,0.85,
4705.000,0.85,
4704.000,0.85,
4703.000,0.86,
4702.000,0.86,
4701.000,0.86,
4700.000,0.86,
4699.000,0.86,
4698.000,0.86,
4697.000,0.86,
4696.000,0.86,
4695.000,0.86,
4694.000,0.86,
4693.000,0.87,
4692.000,0.87,
4691.000,0.87,
4690.000,0.87,
4689.000,0.87,
4688.000,0.87,
4687.000,0.87,
4686.000,0.87,
4685.000,0.87,
4684.000,0.87,
4683.000,0.88,
4682.000,0.88,
4681.000,0.88,
4680.000,0.88,
4679.000,0.89,
4678.000,0.89,
4677.000,0.89,
4676.000,0.9,
4675.000,0.9,
4674.000,0.9,
4673.000,0.9,
4672.000,0.9,
4671.000,0.91,
4670.000,0.91,
4669.000,0.91,
4668.000,0.91,
4667.000,0.92,
4666.000,0.92,
4665.000,0.93,
4664.000,0.93,
4663.000,0.93,
4662.000,0.94,
4661.000,0.94,
4660.000,0.95,
4659.000,0.95,
4658.000,0.95,
4657.000,0.96,
4656.000,0.96,
4655.000,0.97,
4654.000,0.97,
4653.000,0.98,
4652.000,0.98,
4651.000,0.98,
4650.000,0.98,
4649.000,0.99,
4648.000,1,
4647.000,1,
4646.000,1.01,
4645.000,1.02,
4644.000,1.02,
4643.000,1.03,
4642.000,1.03,
4641.000,1.03,
4640.000,1.04,
4639.000,1.05,
4638.000,1.06,
4637.000,1.07,
4636.000,1.07,
4635.000,1.08,
4634.000,1.08,
4633.000,1.09,
4632.000,1.1,
4631.000,1.1,
4630.000,1.11,
4629.000,1.11,
4628.000,1.12,
4627.000,1.13,
4626.000,1.14,
4625.000,1.15,
4624.000,1.16,
4623.000,1.17,
4622.000,1.18,
4621.000,1.19,
4620.000,1.19,
4619.000,1.2,
4618.000,1.21,
4617.000,1.22,
4616.000,1.23,
4615.000,1.24,
4614.000,1.25,
4613.000,1.27,
4612.000,1.28,
4611.000,1.29,
4610.000,1.3,
4609.000,1.31,
4608.000,1.32,
4607.000,1.33,
4606.000,1.35,
4605.000,1.36,
4604.000,1.37,
4603.000,1.39,
4602.000,1.4,
4601.000,1.42,
4600.000,1.43,
4599.000,1.44,
4598.000,1.45,
4597.000,1.47,
4596.000,1.48,
4595.000,1.5,
4594.000,1.51,
4593.000,1.53,
4592.000,1.55,
4591.000,1.57,
4590.000,1.58,
4589.000,1.6,
4588.000,1.62,
4587.000,1.64,
4586.000,1.66,
4585.000,1.68,
4584.000,1.7,
4583.000,1.72,
4582.000,1.74,
4581.000,1.76,
4580.000,1.78,
4579.000,1.8,
4578.000,1.83,
4577.000,1.85,
4576.000,1.87,
4575.000,1.89,
4574.000,1.91,
4573.000,1.94,
4572.000,1.97,
4571.000,2,
4570.000,2.03,
4569.000,2.05,
4568.000,2.08,
4567.000,2.11,
4566.000,2.13,
4565.000,2.16,
4564.000,2.19,
4563.000,2.22,
4562.000,2.25,
4561.000,2.29,
4560.000,2.32,
4559.000,2.35,
4558.000,2.38,
4557.000,2.42,
4556.000,2.45,
4555.000,2.48,
4554.000,2.52,
4553.000,2.56,
4552.000,2.59,
4551.000,2.63,
4550.000,2.66,
4549.000,2.7,
4548.000,2.74,
4547.000,2.78,
4546.000,2.82,
4545.000,2.86,
4544.000,2.91,
4543.000,2.95,
4542.000,3,
4541.000,3.04,
4540.000,3.09,
4539.000,3.13,
4538.000,3.18,
4537.000,3.23,
4536.000,3.27,
4535.000,3.32,
4534.000,3.37,
4533.000,3.42,
4532.000,3.47,
4531.000,3.53,
4530.000,3.58,
4529.000,3.64,
4528.000,3.69,
4527.000,3.75,
4526.000,3.81,
4525.000,3.86,
4524.000,3.92,
4523.000,3.97,
4522.000,4.03,
4521.000,4.09,
4520.000,4.16,
4519.000,4.22,
4518.000,4.28,
4517.000,4.35,
4516.000,4.41,
4515.000,4.48,
4514.000,4.54,
4513.000,4.61,
4512.000,4.68,
4511.000,4.75,
4510.000,4.81,
4509.000,4.88,
4508.000,4.95,
4507.000,5.02,
4506.000,5.09,
4505.000,5.16,
4504.000,5.24,
4503.000,5.31,
4502.000,5.38,
4501.000,5.45,
4500.000,5.52,
4499.000,5.6,
4498.000,5.67,
4497.000,5.74,
4496.000,5.81,
4495.000,5.88,
4494.000,5.96,
4493.000,6.02,
4492.000,6.09,
4491.000,6.16,
4490.000,6.23,
4489.000,6.3,
4488.000,6.37,
4487.000,6.43,
4486.000,6.5,
4485.000,6.56,
4484.000,6.63,
4483.000,6.69,
4482.000,6.74,
4481.000,6.8,
4480.000,6.85,
4479.000,6.9,
4478.000,6.95,
4477.000,7,
4476.000,7.05,
4475.000,7.09,
4474.000,7.13,
4473.000,7.17,
4472.000,7.21,
4471.000,7.24,
4470.000,7.27,
4469.000,7.29,
4468.000,7.32,
4467.000,7.34,
4466.000,7.36,
4465.000,7.38,
4464.000,7.39,
4463.000,7.4,
4462.000,7.41,
4461.000,7.41,
4460.000,7.41,
4459.000,7.41,
4458.000,7.41,
4457.000,7.4,
4456.000,7.39,
4455.000,7.38,
4454.000,7.37,
4453.000,7.35,
4452.000,7.34,
4451.000,7.32,
4450.000,7.29,
4449.000,7.27,
4448.000,7.24,
4447.000,7.21,
4446.000,7.19,
4445.000,7.16,
4444.000,7.13,
4443.000,7.1,
4442.000,7.06,
4441.000,7.03,
4440.000,6.99,
4439.000,6.96,
4438.000,6.92,
4437.000,6.88,
4436.000,6.84,
4435.000,6.8,
4434.000,6.76,
4433.000,6.72,
4432.000,6.68,
4431.000,6.64,
4430.000,6.6,
4429.000,6.55,
4428.000,6.5,
4427.000,6.46,
4426.000,6.41,
4425.000,6.37,
4424.000,6.32,
4423.000,6.28,
4422.000,6.23,
4421.000,6.19,
4420.000,6.14,
4419.000,6.1,
4418.000,6.05,
4417.000,6.01,
4416.000,5.96,
4415.000,5.92,
4414.000,5.87,
4413.000,5.83,
4412.000,5.78,
4411.000,5.73,
4410.000,5.69,
4409.000,5.65,
4408.000,5.6,
4407.000,5.56,
4406.000,5.52,
4405.000,5.47,
4404.000,5.43,
4403.000,5.39,
4402.000,5.34,
4401.000,5.3,
4400.000,5.25,
4399.000,5.21,
4398.000,5.17,
4397.000,5.13,
4396.000,5.08,
4395.000,5.04,
4394.000,5,
4393.000,4.96,
4392.000,4.92,
4391.000,4.87,
4390.000,4.83,
4389.000,4.79,
4388.000,4.75,
4387.000,4.71,
4386.000,4.67,
4385.000,4.64,
4384.000,4.6,
4383.000,4.56,
4382.000,4.52,
4381.000,4.48,
4380.000,4.45,
4379.000,4.41,
4378.000,4.38,
4377.000,4.34,
4376.000,4.3,
4375.000,4.27,
4374.000,4.23,
4373.000,4.2,
4372.000,4.17,
4371.000,4.13,
4370.000,4.1,
4369.000,4.07,
4368.000,4.04,
4367.000,4.01,
4366.000,3.98,
4365.000,3.95,
4364.000,3.92,
4363.000,3.89,
4362.000,3.86,
4361.000,3.84,
4360.000,3.81,
4359.000,3.78,
4358.000,3.75,
4357.000,3.73,
4356.000,3.7,
4355.000,3.67,
4354.000,3.64,
4353.000,3.62,
4352.000,3.59,
4351.000,3.57,
4350.000,3.54,
4349.000,3.51,
4348.000,3.49,
4347.000,3.46,
4346.000,3.43,
4345.000,3.41,
4344.000,3.38,
4343.000,3.35,
4342.000,3.33,
4341.000,3.3,
4340.000,3.27,
4339.000,3.25,
4338.000,3.22,
4337.000,3.2,
4336.000,3.17,
4335.000,3.15,
4334.000,3.12,
4333.000,3.1,
4332.000,3.07,
4331.000,3.05,
4330.000,3.03,
4329.000,3,
4328.000,2.97,
4327.000,2.95,
4326.000,2.92,
4325.000,2.89,
4324.000,2.86,
4323.000,2.84,
4322.000,2.81,
4321.000,2.78,
4320.000,2.76,
4319.000,2.73,
4318.000,2.71,
4317.000,2.68,
4316.000,2.66,
4315.000,2.63,
4314.000,2.61,
4313.000,2.59,
4312.000,2.56,
4311.000,2.54,
4310.000,2.51,
4309.000,2.49,
4308.000,2.46,
4307.000,2.44,
4306.000,2.41,
4305.000,2.39,
4304.000,2.37,
4303.000,2.34,
4302.000,2.32,
4301.000,2.3,
4300.000,2.28,
4299.000,2.25,
4298.000,2.23,
4297.000,2.21,
4296.000,2.18,
4295.000,2.16,
4294.000,2.14,
4293.000,2.12,
4292.000,2.09,
4291.000,2.07,
4290.000,2.05,
4289.000,2.03,
4288.000,2.01,
4287.000,1.99,
4286.000,1.97,
4285.000,1.95,
4284.000,1.93,
4283.000,1.91,
4282.000,1.89,
4281.000,1.87,
4280.000,1.85,
4279.000,1.84,
4278.000,1.82,
4277.000,1.8,
4276.000,1.78,
4275.000,1.76,
4274.000,1.74,
4273.000,1.72,
4272.000,1.71,
4271.000,1.69,
4270.000,1.67,
4269.000,1.65,
4268.000,1.63,
4267.000,1.62,
4266.000,1.6,
4265.000,1.59,
4264.000,1.57,
4263.000,1.55,
4262.000,1.53,
4261.000,1.51,
4260.000,1.5,
4259.000,1.48,
4258.000,1.47,
4257.000,1.45,
4256.000,1.43,
4255.000,1.42,
4254.000,1.4,
4253.000,1.38,
4252.000,1.37,
4251.000,1.35,
4250.000,1.33,
4249.000,1.32,
4248.000,1.3,
4247.000,1.29,
4246.000,1.27,
4245.000,1.26,
4244.000,1.24,
4243.000,1.22,
4242.000,1.21,
4241.000,1.19,
4240.000,1.18,
4239.000,1.17,
4238.000,1.15,
4237.000,1.14,
4236.000,1.12,
4235.000,1.11,
4234.000,1.1,
4233.000,1.08,
4232.000,1.07,
4231.000,1.05,
4230.000,1.04,
4229.000,1.03,
4228.000,1.02,
4227.000,1.01,
4226.000,0.99,
4225.000,0.98,
4224.000,0.97,
4223.000,0.96,
4222.000,0.95,
4221.000,0.94,
4220.000,0.93,
4219.000,0.92,
4218.000,0.91,
4217.000,0.89,
4216.000,0.88,
4215.000,0.87,
4214.000,0.86,
4213.000,0.86,
4212.000,0.85,
4211.000,0.84,
4210.000,0.83,
4209.000,0.83,
4208.000,0.82,
4207.000,0.81,
4206.000,0.8,
4205.000,0.79,
4204.000,0.78,
4203.000,0.78,
4202.000,0.77,
4201.000,0.76,
4200.000,0.75,
4199.000,0.75,
4198.000,0.74,
4197.000,0.73,
4196.000,0.73,
4195.000,0.72,
4194.000,0.72,
4193.000,0.71,
4192.000,0.71,
4191.000,0.7,
4190.000,0.7,
4189.000,0.69,
4188.000,0.68,
4187.000,0.68,
4186.000,0.67,
4185.000,0.67,
4184.000,0.66,
4183.000,0.66,
4182.000,0.65,
4181.000,0.65,
4180.000,0.64,
4179.000,0.64,
4178.000,0.63,
4177.000,0.63,
4176.000,0.62,
4175.000,0.62,
4174.000,0.62,
4173.000,0.61,
4172.000,0.61,
4171.000,0.61,
4170.000,0.6,
4169.000,0.6,
4168.000,0.6,
4167.000,0.59,
4166.000,0.59,
4165.000,0.59,
4164.000,0.58,
4163.000,0.58,
4162.000,0.58,
4161.000,0.57,
4160.000,0.57,
4159.000,0.57,
4158.000,0.57,
4157.000,0.56,
4156.000,0.56,
4155.000,0.56,
4154.000,0.55,
4153.000,0.55,
4152.000,0.55,
4151.000,0.55,
4150.000,0.54,
4149.000,0.54,
4148.000,0.54,
4147.000,0.54,
4146.000,0.54,
4145.000,0.54,
4144.000,0.53,
4143.000,0.53,
4142.000,0.53,
4141.000,0.53,
4140.000,0.53,
4139.000,0.53,
4138.000,0.53,
4137.000,0.52,
4136.000,0.52,
4135.000,0.52,
4134.000,0.52,
4133.000,0.52,
4132.000,0.51,
4131.000,0.51,
4130.000,0.51,
4129.000,0.51,
4128.000,0.51,
4127.000,0.5,
4126.000,0.5,
4125.000,0.5,
4124.000,0.5,
4123.000,0.5,
4122.000,0.5,
4121.000,0.5,
4120.000,0.5,
4119.000,0.5,
4118.000,0.5,
4117.000,0.5,
4116.000,0.5,
4115.000,0.5,
4114.000,0.49,
4113.000,0.49,
4112.000,0.49,
4111.000,0.49,
4110.000,0.49,
4109.000,0.49,
4108.000,0.49,
4107.000,0.49,
4106.000,0.49,
4105.000,0.49,
4104.000,0.49,
4103.000,0.49,
4102.000,0.49,
4101.000,0.48,
4100.000,0.48,
4099.000,0.48,
4098.000,0.48,
4097.000,0.48,
4096.000,0.48,
4095.000,0.48,
4094.000,0.48,
4093.000,0.48,
4092.000,0.48,
4091.000,0.49,
4090.000,0.49,
4089.000,0.48,
4088.000,0.48,
4087.000,0.48,
4086.000,0.48,
4085.000,0.48,
4084.000,0.49,
4083.000,0.49,
4082.000,0.49,
4081.000,0.49,
4080.000,0.49,
4079.000,0.49,
4078.000,0.49,
4077.000,0.49,
4076.000,0.49,
4075.000,0.49,
4074.000,0.49,
4073.000,0.49,
4072.000,0.49,
4071.000,0.49,
4070.000,0.49,
4069.000,0.49,
4068.000,0.49,
4067.000,0.49,
4066.000,0.49,
4065.000,0.49,
4064.000,0.49,
4063.000,0.5,
4062.000,0.5,
4061.000,0.49,
4060.000,0.49,
4059.000,0.5,
4058.000,0.5,
4057.000,0.5,
4056.000,0.5,
4055.000,0.5,
4054.000,0.5,
4053.000,0.5,
4052.000,0.51,
4051.000,0.51,
4050.000,0.51,
4049.000,0.51,
4048.000,0.51,
4047.000,0.51,
4046.000,0.51,
4045.000,0.52,
4044.000,0.52,
4043.000,0.52,
4042.000,0.52,
4041.000,0.52,
4040.000,0.53,
4039.000,0.53,
4038.000,0.53,
4037.000,0.53,
4036.000,0.53,
4035.000,0.53,
4034.000,0.53,
4033.000,0.54,
4032.000,0.54,
4031.000,0.54,
4030.000,0.54,
4029.000,0.54,
4028.000,0.55,
4027.000,0.55,
4026.000,0.55,
4025.000,0.56,
4024.000,0.56,
4023.000,0.56,
4022.000,0.56,
4021.000,0.56,
4020.000,0.57,
4019.000,0.57,
4018.000,0.57,
4017.000,0.58,
4016.000,0.58,
4015.000,0.58,
4014.000,0.59,
4013.000,0.59,
4012.000,0.59,
4011.000,0.6,
4010.000,0.6,
4009.000,0.6,
4008.000,0.61,
4007.000,0.61,
4006.000,0.62,
4005.000,0.62,
4004.000,0.62,
4003.000,0.62,
4002.000,0.63,
4001.000,0.63,
4000.000,0.64,
3999.000,0.64,
3998.000,0.65,
3997.000,0.65,
3996.000,0.66,
3995.000,0.66,
3994.000,0.66,
3993.000,0.67,
3992.000,0.67,
3991.000,0.68,
3990.000,0.68,
3989.000,0.69,
3988.000,0.69,
3987.000,0.7,
3986.000,0.71,
3985.000,0.71,
3984.000,0.72,
3983.000,0.72,
3982.000,0.73,
3981.000,0.74,
3980.000,0.74,
3979.000,0.75,
3978.000,0.76,
3977.000,0.76,
3976.000,0.77,
3975.000,0.77,
3974.000,0.78,
3973.000,0.79,
3972.000,0.79,
3971.000,0.8,
3970.000,0.81,
3969.000,0.82,
3968.000,0.82,
3967.000,0.83,
3966.000,0.84,
3965.000,0.85,
3964.000,0.86,
3963.000,0.87,
3962.000,0.88,
3961.000,0.89,
3960.000,0.9,
3959.000,0.91,
3958.000,0.92,
3957.000,0.93,
3956.000,0.94,
3955.000,0.95,
3954.000,0.96,
3953.000,0.97,
3952.000,0.98,
3951.000,1,
3950.000,1.01,
3949.000,1.02,
3948.000,1.03,
3947.000,1.04,
3946.000,1.06,
3945.000,1.07,
3944.000,1.09,
3943.000,1.1,
3942.000,1.11,
3941.000,1.13,
3940.000,1.14,
3939.000,1.16,
3938.000,1.17,
3937.000,1.19,
3936.000,1.2,
3935.000,1.22,
3934.000,1.24,
3933.000,1.26,
3932.000,1.28,
3931.000,1.3,
3930.000,1.32,
3929.000,1.34,
3928.000,1.36,
3927.000,1.38,
3926.000,1.4,
3925.000,1.42,
3924.000,1.45,
3923.000,1.47,
3922.000,1.49,
3921.000,1.52,
3920.000,1.54,
3919.000,1.57,
3918.000,1.59,
3917.000,1.62,
3916.000,1.64,
3915.000,1.67,
3914.000,1.69,
3913.000,1.72,
3912.000,1.75,
3911.000,1.79,
3910.000,1.82,
3909.000,1.85,
3908.000,1.89,
3907.000,1.92,
3906.000,1.96,
3905.000,2,
3904.000,2.03,
3903.000,2.07,
3902.000,2.1,
3901.000,2.14,
3900.000,2.17,
3899.000,2.21,
3898.000,2.24,
3897.000,2.28,
3896.000,2.31,
3895.000,2.36,
3894.000,2.4,
3893.000,2.45,
3892.000,2.49,
3891.000,2.54,
3890.000,2.58,
3889.000,2.63,
3888.000,2.67,
3887.000,2.72,
3886.000,2.77,
3885.000,2.82,
3884.000,2.86,
3883.000,2.91,
3882.000,2.96,
3881.000,3.01,
3880.000,3.06,
3879.000,3.11,
3878.000,3.16,
3877.000,3.21,
3876.000,3.27,
3875.000,3.33,
3874.000,3.38,
3873.000,3.44,
3872.000,3.5,
3871.000,3.56,
3870.000,3.62,
3869.000,3.67,
3868.000,3.73,
3867.000,3.78,
3866.000,3.84,
3865.000,3.9,
3864.000,3.97,
3863.000,4.02,
3862.000,4.08,
3861.000,4.14,
3860.000,4.19,
3859.000,4.25,
3858.000,4.31,
3857.000,4.37,
3856.000,4.43,
3855.000,4.49,
3854.000,4.55,
3853.000,4.6,
3852.000,4.66,
3851.000,4.71,
3850.000,4.76,
3849.000,4.81,
3848.000,4.86,
3847.000,4.91,
3846.000,4.95,
3845.000,5,
3844.000,5.04,
3843.000,5.08,
3842.000,5.12,
3841.000,5.15,
3840.000,5.19,
3839.000,5.22,
3838.000,5.25,
3837.000,5.27,
3836.000,5.29,
3835.000,5.31,
3834.000,5.33,
3833.000,5.35,
3832.000,5.36,
3831.000,5.37,
3830.000,5.37,
3829.000,5.37,
3828.000,5.38,
3827.000,5.37,
3826.000,5.37,
3825.000,5.35,
3824.000,5.34,
3823.000,5.33,
3822.000,5.31,
3821.000,5.3,
3820.000,5.28,
3819.000,5.26,
3818.000,5.24,
3817.000,5.22,
3816.000,5.19,
3815.000,5.17,
3814.000,5.14,
3813.000,5.12,
3812.000,5.09,
3811.000,5.06,
3810.000,5.03,
3809.000,4.99,
3808.000,4.96,
3807.000,4.92,
3806.000,4.89,
3805.000,4.86,
3804.000,4.82,
3803.000,4.79,
3802.000,4.75,
3801.000,4.71,
3800.000,4.68,
3799.000,4.64,
3798.000,4.61,
3797.000,4.57,
3796.000,4.54,
3795.000,4.5,
3794.000,4.46,
3793.000,4.42,
3792.000,4.39,
3791.000,4.35,
3790.000,4.31,
3789.000,4.27,
3788.000,4.23,
3787.000,4.2,
3786.000,4.16,
3785.000,4.13,
3784.000,4.09,
3783.000,4.06,
3782.000,4.02,
3781.000,3.99,
3780.000,3.95,
3779.000,3.91,
3778.000,3.88,
3777.000,3.85,
3776.000,3.81,
3775.000,3.78,
3774.000,3.75,
3773.000,3.71,
3772.000,3.68,
3771.000,3.64,
3770.000,3.61,
3769.000,3.58,
3768.000,3.55,
3767.000,3.52,
3766.000,3.49,
3765.000,3.46,
3764.000,3.42,
3763.000,3.39,
3762.000,3.36,
3761.000,3.33,
3760.000,3.3,
3759.000,3.27,
3758.000,3.24,
3757.000,3.21,
3756.000,3.18,
3755.000,3.15,
3754.000,3.13,
3753.000,3.1,
3752.000,3.07,
3751.000,3.04,
3750.000,3.01,
3749.000,2.99,
3748.000,2.96,
3747.000,2.93,
3746.000,2.91,
3745.000,2.88,
3744.000,2.85,
3743.000,2.82,
3742.000,2.8,
3741.000,2.77,
3740.000,2.74,
3739.000,2.71,
3738.000,2.69,
3737.000,2.66,
3736.000,2.63,
3735.000,2.6,
3734.000,2.58,
3733.000,2.55,
3732.000,2.52,
3731.000,2.5,
3730.000,2.47,
3729.000,2.45,
3728.000,2.42,
3727.000,2.39,
3726.000,2.37,
3725.000,2.34,
3724.000,2.32,
3723.000,2.29,
3722.000,2.26,
3721.000,2.24,
3720.000,2.21,
3719.000,2.19,
3718.000,2.16,
3717.000,2.14,
3716.000,2.11,
3715.000,2.09,
3714.000,2.07,
3713.000,2.04,
3712.000,2.02,
3711.000,2,
3710.000,1.97,
3709.000,1.95,
3708.000,1.92,
3707.000,1.9,
3706.000,1.88,
3705.000,1.86,
3704.000,1.83,
3703.000,1.81,
3702.000,1.78,
3701.000,1.76,
3700.000,1.74,
3699.000,1.71,
3698.000,1.69,
3697.000,1.67,
3696.000,1.64,
3695.000,1.62,
3694.000,1.6,
3693.000,1.57,
3692.000,1.55,
3691.000,1.53,
3690.000,1.51,
3689.000,1.49,
3688.000,1.47,
3687.000,1.45,
3686.000,1.43,
3685.000,1.41,
3684.000,1.39,
3683.000,1.37,
3682.000,1.35,
3681.000,1.33,
3680.000,1.31,
3679.000,1.29,
3678.000,1.28,
3677.000,1.26,
3676.000,1.24,
3675.000,1.22,
3674.000,1.2,
3673.000,1.19,
3672.000,1.17,
3671.000,1.15,
3670.000,1.13,
3669.000,1.12,
3668.000,1.1,
3667.000,1.08,
3666.000,1.07,
3665.000,1.05,
3664.000,1.04,
3663.000,1.02,
3662.000,1.01,
3661.000,0.99,
3660.000,0.98,
3659.000,0.96,
3658.000,0.95,
3657.000,0.93,
3656.000,0.92,
3655.000,0.9,
3654.000,0.89,
3653.000,0.87,
3652.000,0.86,
3651.000,0.85,
3650.000,0.84,
3649.000,0.83,
3648.000,0.81,
3647.000,0.8,
3646.000,0.79,
3645.000,0.78,
3644.000,0.77,
3643.000,0.76,
3642.000,0.75,
3641.000,0.74,
3640.000,0.73,
3639.000,0.72,
3638.000,0.71,
3637.000,0.7,
3636.000,0.69,
3635.000,0.68,
3634.000,0.67,
3633.000,0.66,
3632.000,0.65,
3631.000,0.64,
3630.000,0.64,
3629.000,0.63,
3628.000,0.62,
3627.000,0.61,
3626.000,0.6,
3625.000,0.6,
3624.000,0.59,
3623.000,0.58,
3622.000,0.57,
3621.000,0.57,
3620.000,0.56,
3619.000,0.55,
3618.000,0.55,
3617.000,0.54,
3616.000,0.53,
3615.000,0.53,
3614.000,0.52,
3613.000,0.52,
3612.000,0.51,
3611.000,0.51,
3610.000,0.5,
3609.000,0.5,
3608.000,0.49,
3607.000,0.49,
3606.000,0.48,
3605.000,0.48,
3604.000,0.47,
3603.000,0.47,
3602.000,0.46,
3601.000,0.46,
3600.000,0.45,
3599.000,0.45,
3598.000,0.44,
3597.000,0.44,
3596.000,0.44,
3595.000,0.43,
3594.000,0.43,
3593.000,0.43,
3592.000,0.42,
3591.000,0.42,
3590.000,0.41,
3589.000,0.41,
3588.000,0.4,
3587.000,0.4,
3586.000,0.4,
3585.000,0.39,
3584.000,0.39,
3583.000,0.39,
3582.000,0.38,
3581.000,0.38,
3580.000,0.38,
3579.000,0.38,
3578.000,0.37,
3577.000,0.37,
3576.000,0.37,
3575.000,0.37,
3574.000,0.36,
3573.000,0.36,
3572.000,0.36,
3571.000,0.35,
3570.000,0.35,
3569.000,0.35,
3568.000,0.35,
3567.000,0.34,
3566.000,0.34,
3565.000,0.34,
3564.000,0.34,
3563.000,0.34,
3562.000,0.33,
3561.000,0.33,
3560.000,0.33,
3559.000,0.33,
3558.000,0.32,
3557.000,0.32,
3556.000,0.32,
3555.000,0.32,
3554.000,0.32,
3553.000,0.32,
3552.000,0.32,
3551.000,0.31,
3550.000,0.31,
3549.000,0.31,
3548.000,0.31,
3547.000,0.31,
3546.000,0.3,
3545.000,0.3,
3544.000,0.3,
3543.000,0.3,
3542.000,0.3,
3541.000,0.3,
3540.000,0.29,
3539.000,0.29,
3538.000,0.29,
3537.000,0.29,
3536.000,0.29,
3535.000,0.29,
3534.000,0.29,
3533.000,0.29,
3532.000,0.29,
3531.000,0.28,
3530.000,0.28,
3529.000,0.28,
3528.000,0.28,
3527.000,0.28,
3526.000,0.28,
3525.000,0.28,
3524.000,0.28,
3523.000,0.28,
3522.000,0.28,
3521.000,0.28,
3520.000,0.28,
3519.000,0.27,
3518.000,0.27,
3517.000,0.27,
3516.000,0.27,
3515.000,0.27,
3514.000,0.27,
3513.000,0.27,
3512.000,0.27,
3511.000,0.27,
3510.000,0.27,
3509.000,0.27,
3508.000,0.26,
3507.000,0.26,
3506.000,0.26,
3505.000,0.26,
3504.000,0.26,
3503.000,0.26,
3502.000,0.26,
3501.000,0.26,
3500.000,0.26,
3499.000,0.26,
3498.000,0.26,
3497.000,0.26,
3496.000,0.26,
3495.000,0.26,
3494.000,0.26,
3493.000,0.26,
3492.000,0.26,
3491.000,0.26,
3490.000,0.26,
3489.000,0.26,
3488.000,0.25,
3487.000,0.25,
3486.000,0.25,
3485.000,0.26,
3484.000,0.26,
3483.000,0.26,
3482.000,0.26,
3481.000,0.25,
3480.000,0.25,
3479.000,0.25,
3478.000,0.25,
3477.000,0.25,
3476.000,0.25,
3475.000,0.25,
3474.000,0.25,
3473.000,0.25,
3472.000,0.25,
3471.000,0.25,
3470.000,0.25,
3469.000,0.25,
3468.000,0.25,
3467.000,0.25,
3466.000,0.25,
3465.000,0.25,
3464.000,0.25,
3463.000,0.25,
3462.000,0.25,
3461.000,0.25,
3460.000,0.25,
3459.000,0.25,
3458.000,0.25,
3457.000,0.25,
3456.000,0.25,
3455.000,0.25,
3454.000,0.25,
3453.000,0.25,
3452.000,0.25,
3451.000,0.25,
3450.000,0.25,
3449.000,0.25,
3448.000,0.25,
3447.000,0.25,
3446.000,0.25,
3445.000,0.25,
3444.000,0.25,
3443.000,0.25,
3442.000,0.26,
3441.000,0.26,
3440.000,0.26,
3439.000,0.26,
3438.000,0.26,
3437.000,0.26,
3436.000,0.26,
3435.000,0.26,
3434.000,0.26,
3433.000,0.26,
3432.000,0.26,
3431.000,0.26,
3430.000,0.27,
3429.000,0.27,
3428.000,0.27,
3427.000,0.27,
3426.000,0.27,
3425.000,0.27,
3424.000,0.27,
3423.000,0.27,
3422.000,0.27,
3421.000,0.27,
3420.000,0.27,
3419.000,0.27,
3418.000,0.27,
3417.000,0.27,
3416.000,0.27,
3415.000,0.27,
3414.000,0.27,
3413.000,0.27,
3412.000,0.27,
3411.000,0.27,
3410.000,0.27,
3409.000,0.27,
3408.000,0.27,
3407.000,0.27,
3406.000,0.28,
3405.000,0.28,
3404.000,0.28,
3403.000,0.28,
3402.000,0.28,
3401.000,0.28,
3400.000,0.28,
3399.000,0.28,
3398.000,0.28,
3397.000,0.28,
3396.000,0.29,
3395.000,0.29,
3394.000,0.29,
3393.000,0.29,
3392.000,0.29,
3391.000,0.29,
3390.000,0.29,
3389.000,0.3,
3388.000,0.3,
3387.000,0.3,
3386.000,0.3,
3385.000,0.3,
3384.000,0.31,
3383.000,0.31,
3382.000,0.31,
3381.000,0.31,
3380.000,0.31,
3379.000,0.32,
3378.000,0.32,
3377.000,0.32,
3376.000,0.32,
3375.000,0.32,
3374.000,0.32,
3373.000,0.33,
3372.000,0.33,
3371.000,0.33,
3370.000,0.33,
3369.000,0.33,
3368.000,0.34,
3367.000,0.34,
3366.000,0.34,
3365.000,0.35,
3364.000,0.35,
3363.000,0.35,
3362.000,0.35,
3361.000,0.35,
3360.000,0.36,
3359.000,0.36,
3358.000,0.36,
3357.000,0.36,
3356.000,0.37,
3355.000,0.37,
3354.000,0.37,
3353.000,0.38,
3352.000,0.38,
3351.000,0.38,
3350.000,0.39,
3349.000,0.39,
3348.000,0.39,
3347.000,0.4,
3346.000,0.4,
3345.000,0.41,
3344.000,0.41,
3343.000,0.41,
3342.000,0.41,
3341.000,0.42,
3340.000,0.42,
3339.000,0.43,
3338.000,0.43,
3337.000,0.43,
3336.000,0.44,
3335.000,0.45,
3334.000,0.45,
3333.000,0.45,
3332.000,0.46,
3331.000,0.46,
3330.000,0.47,
3329.000,0.47,
3328.000,0.48,
3327.000,0.48,
3326.000,0.49,
3325.000,0.49,
3324.000,0.5,
3323.000,0.51,
3322.000,0.52,
3321.000,0.52,
3320.000,0.53,
3319.000,0.53,
3318.000,0.54,
3317.000,0.55,
3316.000,0.55,
3315.000,0.56,
3314.000,0.57,
3313.000,0.58,
3312.000,0.58,
3311.000,0.59,
3310.000,0.6,
3309.000,0.61,
3308.000,0.62,
3307.000,0.63,
3306.000,0.64,
3305.000,0.64,
3304.000,0.65,
3303.000,0.66,
3302.000,0.67,
3301.000,0.68,
3300.000,0.69,
3299.000,0.7,
3298.000,0.71,
3297.000,0.73,
3296.000,0.74,
3295.000,0.75,
3294.000,0.76,
3293.000,0.77,
3292.000,0.78,
3291.000,0.8,
3290.000,0.81,
3289.000,0.82,
3288.000,0.84,
3287.000,0.85,
3286.000,0.87,
3285.000,0.88,
3284.000,0.9,
3283.000,0.91,
3282.000,0.93,
3281.000,0.95,
3280.000,0.96,
3279.000,0.98,
3278.000,1,
3277.000,1.02,
3276.000,1.04,
3275.000,1.06,
3274.000,1.08,
3273.000,1.1,
3272.000,1.12,
3271.000,1.14,
3270.000,1.16,
3269.000,1.19,
3268.000,1.21,
3267.000,1.23,
3266.000,1.25,
3265.000,1.28,
3264.000,1.3,
3263.000,1.32,
3262.000,1.35,
3261.000,1.38,
3260.000,1.4,
3259.000,1.43,
3258.000,1.46,
3257.000,1.49,
3256.000,1.52,
3255.000,1.55,
3254.000,1.57,
3253.000,1.6,
3252.000,1.63,
3251.000,1.67,
3250.000,1.7,
3249.000,1.73,
3248.000,1.76,
3247.000,1.8,
3246.000,1.83,
3245.000,1.86,
3244.000,1.9,
3243.000,1.93,
3242.000,1.97,
3241.000,2.01,
3240.000,2.04,
3239.000,2.08,
3238.000,2.12,
3237.000,2.15,
3236.000,2.19,
3235.000,2.23,
3234.000,2.27,
3233.000,2.3,
3232.000,2.34,
3231.000,2.38,
3230.000,2.42,
3229.000,2.46,
3228.000,2.5,
3227.000,2.54,
3226.000,2.58,
3225.000,2.61,
3224.000,2.65,
3223.000,2.69,
3222.000,2.72,
3221.000,2.76,
3220.000,2.79,
3219.000,2.83,
3218.000,2.86,
3217.000,2.89,
3216.000,2.92,
3215.000,2.95,
3214.000,2.98,
3213.000,3,
3212.000,3.03,
3211.000,3.05,
3210.000,3.07,
3209.000,3.09,
3208.000,3.11,
3207.000,3.13,
3206.000,3.14,
3205.000,3.16,
3204.000,3.17,
3203.000,3.18,
3202.000,3.18,
3201.000,3.19,
3200.000,3.19,
3199.000,3.19,
3198.000,3.2,
3197.000,3.19,
3196.000,3.19,
3195.000,3.19,
3194.000,3.18,
3193.000,3.17,
3192.000,3.16,
3191.000,3.15,
3190.000,3.14,
3189.000,3.12,
3188.000,3.11,
3187.000,3.09,
3186.000,3.08,
3185.000,3.06,
3184.000,3.04,
3183.000,3.02,
3182.000,3,
3181.000,2.98,
3180.000,2.96,
3179.000,2.93,
3178.000,2.91,
3177.000,2.89,
3176.000,2.87,
3175.000,2.84,
3174.000,2.82,
3173.000,2.8,
3172.000,2.77,
3171.000,2.75,
3170.000,2.72,
3169.000,2.7,
3168.000,2.68,
3167.000,2.65,
3166.000,2.62,
3165.000,2.6,
3164.000,2.57,
3163.000,2.55,
3162.000,2.53,
3161.000,2.5,
3160.000,2.48,
3159.000,2.45,
3158.000,2.43,
3157.000,2.4,
3156.000,2.38,
3155.000,2.35,
3154.000,2.33,
3153.000,2.3,
3152.000,2.28,
3151.000,2.25,
3150.000,2.23,
3149.000,2.21,
3148.000,2.18,
3147.000,2.16,
3146.000,2.14,
3145.000,2.11,
3144.000,2.09,
3143.000,2.07,
3142.000,2.05,
3141.000,2.02,
3140.000,2,
3139.000,1.98,
3138.000,1.95,
3137.000,1.93,
3136.000,1.91,
3135.000,1.89,
3134.000,1.87,
3133.000,1.84,
3132.000,1.82,
3131.000,1.8,
3130.000,1.78,
3129.000,1.76,
3128.000,1.74,
3127.000,1.72,
3126.000,1.7,
3125.000,1.68,
3124.000,1.66,
3123.000,1.64,
3122.000,1.62,
3121.000,1.6,
3120.000,1.58,
3119.000,1.56,
3118.000,1.54,
3117.000,1.52,
3116.000,1.5,
3115.000,1.48,
3114.000,1.46,
3113.000,1.44,
3112.000,1.42,
3111.000,1.4,
3110.000,1.38,
3109.000,1.36,
3108.000,1.34,
3107.000,1.32,
3106.000,1.3,
3105.000,1.28,
3104.000,1.27,
3103.000,1.25,
3102.000,1.23,
3101.000,1.21,
3100.000,1.19,
3099.000,1.18,
3098.000,1.16,
3097.000,1.14,
3096.000,1.12,
3095.000,1.11,
3094.000,1.09,
3093.000,1.07,
3092.000,1.06,
3091.000,1.04,
3090.000,1.02,
3089.000,1.01,
3088.000,0.99,
3087.000,0.97,
3086.000,0.96,
3085.000,0.94,
3084.000,0.92,
3083.000,0.91,
3082.000,0.89,
3081.000,0.88,
3080.000,0.86,
3079.000,0.85,
3078.000,0.83,
3077.000,0.81,
3076.000,0.8,
3075.000,0.79,
3074.000,0.77,
3073.000,0.76,
3072.000,0.74,
3071.000,0.73,
3070.000,0.71,
3069.000,0.7,
3068.000,0.69,
3067.000,0.67,
3066.000,0.66,
3065.000,0.65,
3064.000,0.64,
3063.000,0.62,
3062.000,0.61,
3061.000,0.6,
3060.000,0.58,
3059.000,0.57,
3058.000,0.56,
3057.000,0.55,
3056.000,0.54,
3055.000,0.53,
3054.000,0.52,
3053.000,0.51,
3052.000,0.5,
3051.000,0.49,
3050.000,0.48,
3049.000,0.47,
3048.000,0.46,
3047.000,0.45,
3046.000,0.44,
3045.000,0.43,
3044.000,0.43,
3043.000,0.42,
3042.000,0.41,
3041.000,0.4,
3040.000,0.4,
3039.000,0.39,
3038.000,0.38,
3037.000,0.37,
3036.000,0.36,
3035.000,0.36,
3034.000,0.35,
3033.000,0.35,
3032.000,0.34,
3031.000,0.33,
3030.000,0.33,
3029.000,0.32,
3028.000,0.32,
3027.000,0.31,
3026.000,0.31,
3025.000,0.3,
3024.000,0.3,
3023.000,0.29,
3022.000,0.29,
3021.000,0.28,
3020.000,0.28,
3019.000,0.27,
3018.000,0.27,
3017.000,0.26,
3016.000,0.26,
3015.000,0.25,
3014.000,0.25,
3013.000,0.25,
3012.000,0.24,
3011.000,0.24,
3010.000,0.24,
3009.000,0.23,
3008.000,0.23,
3007.000,0.23,
3006.000,0.23,
3005.000,0.22,
3004.000,0.22,
3003.000,0.21,
3002.000,0.21,
3001.000,0.21,
3000.000,0.21,
2999.000,0.2,
2998.000,0.2,
2997.000,0.2,
2996.000,0.19,
2995.000,0.19,
2994.000,0.19,
2993.000,0.19,
2992.000,0.18,
2991.000,0.18,
2990.000,0.18,
2989.000,0.18,
2988.000,0.17,
2987.000,0.17,
2986.000,0.17,
2985.000,0.17,
2984.000,0.16,
2983.000,0.16,
2982.000,0.16,
2981.000,0.16,
2980.000,0.15,
2979.000,0.15,
2978.000,0.15,
2977.000,0.15,
2976.000,0.15,
2975.000,0.14,
2974.000,0.14,
2973.000,0.14,
2972.000,0.14,
2971.000,0.13,
2970.000,0.13,
2969.000,0.13,
2968.000,0.12,
2967.000,0.12,
2966.000,0.12,
2965.000,0.11,
2964.000,0.11,
2963.000,0.11,
2962.000,0.11,
2961.000,0.1,
2960.000,0.1,
2959.000,0.1,
2958.000,0.1,
2957.000,0.09,
2956.000,0.09,
2955.000,0.09,
2954.000,0.09,
2953.000,0.09,
2952.000,0.08,
2951.000,0.08,
2950.000,0.08,
2949.000,0.08,
2948.000,0.08,
2947.000,0.07,
2946.000,0.07,
2945.000,0.07,
2944.000,0.07,
2943.000,0.06,
2942.000,0.06,
2941.000,0.06,
2940.000,0.06,
2939.000,0.06,
2938.000,0.06,
2937.000,0.06,
2936.000,0.06,
2935.000,0.06,
2934.000,0.07,
2933.000,0.07,
2932.000,0.08,
2931.000,0.08,
2930.000,0.08,
2929.000,0.09,
2928.000,0.09,
2927.000,0.1,
2926.000,0.1,
2925.000,0.11,
2924.000,0.11,
2923.000,0.12,
2922.000,0.13,
2921.000,0.13,
2920.000,0.14,
2919.000,0.14,
2918.000,0.15,
2917.000,0.15,
2916.000,0.15,
2915.000,0.16,
2914.000,0.16,
2913.000,0.16,
2912.000,0.16,
2911.000,0.16,
2910.000,0.16,
2909.000,0.16,
2908.000,0.16,
2907.000,0.16,
2906.000,0.16,
2905.000,0.16,
2904.000,0.16,
2903.000,0.16,
2902.000,0.16,
2901.000,0.16,
2900.000,0.16,
2899.000,0.16,
2898.000,0.15,
2897.000,0.15,
2896.000,0.15,
2895.000,0.15,
2894.000,0.15,
2893.000,0.15,
2892.000,0.15,
2891.000,0.15,
2890.000,0.15,
2889.000,0.15,
2888.000,0.14,
2887.000,0.14,
2886.000,0.14,
2885.000,0.14,
2884.000,0.13,
2883.000,0.13,
2882.000,0.13,
2881.000,0.13,
2880.000,0.13,
2879.000,0.13,
2878.000,0.13,
2877.000,0.13,
2876.000,0.12,
2875.000,0.12,
2874.000,0.12,
2873.000,0.12,
2872.000,0.11,
2871.000,0.11,
2870.000,0.11,
2869.000,0.11,
2868.000,0.1,
2867.000,0.1,
2866.000,0.1,
2865.000,0.1,
2864.000,0.1,
2863.000,0.1,
2862.000,0.1,
2861.000,0.1,
2860.000,0.1,
2859.000,0.11,
2858.000,0.11,
2857.000,0.12,
2856.000,0.12,
2855.000,0.13,
2854.000,0.13,
2853.000,0.13,
2852.000,0.14,
2851.000,0.14,
2850.000,0.14,
2849.000,0.14,
2848.000,0.14,
2847.000,0.14,
2846.000,0.15,
2845.000,0.14,
2844.000,0.14,
2843.000,0.14,
2842.000,0.14,
2841.000,0.14,
2840.000,0.14,
2839.000,0.14,
2838.000,0.14,
2837.000,0.14,
2836.000,0.14,
2835.000,0.13,
2834.000,0.13,
2833.000,0.13,
2832.000,0.13,
2831.000,0.13,
2830.000,0.13,
2829.000,0.13,
2828.000,0.13,
2827.000,0.13,
2826.000,0.13,
2825.000,0.13,
2824.000,0.13,
2823.000,0.13,
2822.000,0.13,
2821.000,0.13,
2820.000,0.13,
2819.000,0.13,
2818.000,0.13,
2817.000,0.13,
2816.000,0.13,
2815.000,0.13,
2814.000,0.13,
2813.000,0.13,
2812.000,0.13,
2811.000,0.13,
2810.000,0.13,
2809.000,0.13,
2808.000,0.13,
2807.000,0.13,
2806.000,0.13,
2805.000,0.13,
2804.000,0.13,
2803.000,0.13,
2802.000,0.12,
2801.000,0.12,
2800.000,0.12,
2799.000,0.13,
2798.000,0.13,
2797.000,0.13,
2796.000,0.13,
2795.000,0.13,
2794.000,0.13,
2793.000,0.12,
2792.000,0.12,
2791.000,0.12,
2790.000,0.12,
2789.000,0.12,
2788.000,0.12,
2787.000,0.13,
2786.000,0.13,
2785.000,0.13,
2784.000,0.13,
2783.000,0.13,
2782.000,0.12,
2781.000,0.12,
2780.000,0.13,
2779.000,0.13,
2778.000,0.13,
2777.000,0.13,
2776.000,0.13,
2775.000,0.13,
2774.000,0.13,
2773.000,0.13,
2772.000,0.13,
2771.000,0.13,
2770.000,0.13,
2769.000,0.13,
2768.000,0.13,
2767.000,0.13,
2766.000,0.13,
2765.000,0.13,
2764.000,0.13,
2763.000,0.13,
2762.000,0.13,
2761.000,0.13,
2760.000,0.13,
2759.000,0.13,
2758.000,0.13,
2757.000,0.13,
2756.000,0.13,
2755.000,0.13,
2754.000,0.13,
2753.000,0.13,
2752.000,0.14,
2751.000,0.14,
2750.000,0.14,
2749.000,0.14,
2748.000,0.14,
2747.000,0.14,
2746.000,0.14,
2745.000,0.14,
2744.000,0.14,
2743.000,0.14,
2742.000,0.14,
2741.000,0.14,
2740.000,0.14,
2739.000,0.14,
2738.000,0.14,
2737.000,0.14,
2736.000,0.14,
2735.000,0.14,
2734.000,0.14,
2733.000,0.15,
2732.000,0.15,
2731.000,0.15,
2730.000,0.15,
2729.000,0.15,
2728.000,0.15,
2727.000,0.15,
2726.000,0.15,
2725.000,0.15,
2724.000,0.15,
2723.000,0.15,
2722.000,0.16,
2721.000,0.16,
2720.000,0.16,
2719.000,0.16,
2718.000,0.16,
2717.000,0.16,
2716.000,0.16,
2715.000,0.16,
2714.000,0.16,
2713.000,0.16,
2712.000,0.16,
2711.000,0.17,
2710.000,0.17,
2709.000,0.17,
2708.000,0.17,
2707.000,0.17,
2706.000,0.17,
2705.000,0.18,
2704.000,0.18,
2703.000,0.18,
2702.000,0.18,
2701.000,0.18,
2700.000,0.18,
2699.000,0.18,
2698.000,0.19,
2697.000,0.19,
2696.000,0.19,
2695.000,0.19,
2694.000,0.19,
2693.000,0.19,
2692.000,0.19,
2691.000,0.2,
2690.000,0.2,
2689.000,0.2,
2688.000,0.2,
2687.000,0.2,
2686.000,0.21,
2685.000,0.21,
2684.000,0.21,
2683.000,0.21,
2682.000,0.21,
2681.000,0.21,
2680.000,0.22,
2679.000,0.22,
2678.000,0.22,
2677.000,0.22,
2676.000,0.22,
2675.000,0.22,
2674.000,0.23,
2673.000,0.23,
2672.000,0.23,
2671.000,0.23,
2670.000,0.23,
2669.000,0.24,
2668.000,0.24,
2667.000,0.24,
2666.000,0.24,
2665.000,0.25,
2664.000,0.25,
2663.000,0.25,
2662.000,0.25,
2661.000,0.26,
2660.000,0.26,
2659.000,0.26,
2658.000,0.27,
2657.000,0.27,
2656.000,0.27,
2655.000,0.28,
2654.000,0.28,
2653.000,0.29,
2652.000,0.29,
2651.000,0.3,
2650.000,0.3,
2649.000,0.3,
2648.000,0.31,
2647.000,0.31,
2646.000,0.31,
2645.000,0.32,
2644.000,0.33,
2643.000,0.33,
2642.000,0.34,
2641.000,0.34,
2640.000,0.35,
2639.000,0.35,
2638.000,0.36,
2637.000,0.37,
2636.000,0.37,
2635.000,0.38,
2634.000,0.39,
2633.000,0.39,
2632.000,0.4,
2631.000,0.41,
2630.000,0.42,
2629.000,0.43,
2628.000,0.43,
2627.000,0.44,
2626.000,0.45,
2625.000,0.46,
2624.000,0.47,
2623.000,0.48,
2622.000,0.49,
2621.000,0.5,
2620.000,0.51,
2619.000,0.52,
2618.000,0.53,
2617.000,0.54,
2616.000,0.55,
2615.000,0.56,
2614.000,0.58,
2613.000,0.59,
2612.000,0.6,
2611.000,0.61,
2610.000,0.62,
2609.000,0.64,
2608.000,0.65,
2607.000,0.67,
2606.000,0.68,
2605.000,0.7,
2604.000,0.72,
2603.000,0.73,
2602.000,0.75,
2601.000,0.77,
2600.000,0.79,
2599.000,0.81,
2598.000,0.83,
2597.000,0.85,
2596.000,0.87,
2595.000,0.89,
2594.000,0.91,
2593.000,0.94,
2592.000,0.96,
2591.000,0.98,
2590.000,1.01,
2589.000,1.03,
2588.000,1.06,
2587.000,1.08,
2586.000,1.11,
2585.000,1.13,
2584.000,1.16,
2583.000,1.19,
2582.000,1.22,
2581.000,1.25,
2580.000,1.27,
2579.000,1.3,
2578.000,1.33,
2577.000,1.36,
2576.000,1.39,
2575.000,1.42,
2574.000,1.45,
2573.000,1.48,
2572.000,1.51,
2571.000,1.54,
2570.000,1.57,
2569.000,1.6,
2568.000,1.63,
2567.000,1.66,
2566.000,1.69,
2565.000,1.72,
2564.000,1.75,
2563.000,1.78,
2562.000,1.81,
2561.000,1.84,
2560.000,1.87,
2559.000,1.9,
2558.000,1.93,
2557.000,1.95,
2556.000,1.98,
2555.000,2,
2554.000,2.02,
2553.000,2.04,
2552.000,2.06,
2551.000,2.07,
2550.000,2.09,
2549.000,2.1,
2548.000,2.11,
2547.000,2.12,
2546.000,2.12,
2545.000,2.12,
2544.000,2.12,
2543.000,2.12,
2542.000,2.12,
2541.000,2.12,
2540.000,2.11,
2539.000,2.11,
2538.000,2.1,
2537.000,2.1,
2536.000,2.09,
2535.000,2.08,
2534.000,2.06,
2533.000,2.05,
2532.000,2.04,
2531.000,2.02,
2530.000,2.01,
2529.000,2,
2528.000,1.98,
2527.000,1.97,
2526.000,1.95,
2525.000,1.94,
2524.000,1.92,
2523.000,1.9,
2522.000,1.89,
2521.000,1.87,
2520.000,1.85,
2519.000,1.84,
2518.000,1.82,
2517.000,1.81,
2516.000,1.79,
2515.000,1.77,
2514.000,1.75,
2513.000,1.74,
2512.000,1.72,
2511.000,1.7,
2510.000,1.68,
2509.000,1.66,
2508.000,1.64,
2507.000,1.62,
2506.000,1.6,
2505.000,1.59,
2504.000,1.57,
2503.000,1.55,
2502.000,1.53,
2501.000,1.51,
2500.000,1.49,
2499.000,1.47,
2498.000,1.45,
2497.000,1.43,
2496.000,1.41,
2495.000,1.4,
2494.000,1.38,
2493.000,1.36,
2492.000,1.34,
2491.000,1.32,
2490.000,1.31,
2489.000,1.29,
2488.000,1.27,
2487.000,1.25,
2486.000,1.24,
2485.000,1.22,
2484.000,1.2,
2483.000,1.18,
2482.000,1.16,
2481.000,1.15,
2480.000,1.13,
2479.000,1.11,
2478.000,1.1,
2477.000,1.08,
2476.000,1.06,
2475.000,1.05,
2474.000,1.03,
2473.000,1.01,
2472.000,1,
2471.000,0.98,
2470.000,0.97,
2469.000,0.95,
2468.000,0.94,
2467.000,0.92,
2466.000,0.91,
2465.000,0.89,
2464.000,0.88,
2463.000,0.86,
2462.000,0.85,
2461.000,0.84,
2460.000,0.82,
2459.000,0.81,
2458.000,0.8,
2457.000,0.78,
2456.000,0.77,
2455.000,0.76,
2454.000,0.74,
2453.000,0.73,
2452.000,0.72,
2451.000,0.71,
2450.000,0.7,
2449.000,0.68,
2448.000,0.67,
2447.000,0.66,
2446.000,0.65,
2445.000,0.64,
2444.000,0.62,
2443.000,0.61,
2442.000,0.6,
2441.000,0.59,
2440.000,0.58,
2439.000,0.57,
2438.000,0.56,
2437.000,0.55,
2436.000,0.54,
2435.000,0.53,
2434.000,0.52,
2433.000,0.51,
2432.000,0.49,
2431.000,0.48,
2430.000,0.47,
2429.000,0.46,
2428.000,0.45,
2427.000,0.45,
2426.000,0.44,
2425.000,0.43,
2424.000,0.42,
2423.000,0.41,
2422.000,0.4,
2421.000,0.39,
2420.000,0.39,
2419.000,0.38,
2418.000,0.37,
2417.000,0.36,
2416.000,0.36,
2415.000,0.35,
2414.000,0.34,
2413.000,0.33,
2412.000,0.33,
2411.000,0.32,
2410.000,0.31,
2409.000,0.31,
2408.000,0.3,
2407.000,0.3,
2406.000,0.29,
2405.000,0.28,
2404.000,0.28,
2403.000,0.27,
2402.000,0.27,
2401.000,0.26,
2400.000,0.26,
2399.000,0.25,
2398.000,0.25,
2397.000,0.24,
2396.000,0.24,
2395.000,0.24,
2394.000,0.23,
2393.000,0.23,
2392.000,0.22,
2391.000,0.22,
2390.000,0.22,
2389.000,0.21,
2388.000,0.21,
2387.000,0.21,
2386.000,0.2,
2385.000,0.2,
2384.000,0.2,
2383.000,0.19,
2382.000,0.19,
2381.000,0.19,
2380.000,0.18,
2379.000,0.18,
2378.000,0.18,
2377.000,0.18,
2376.000,0.18,
2375.000,0.17,
2374.000,0.17,
2373.000,0.17,
2372.000,0.16,
2371.000,0.16,
2370.000,0.16,
2369.000,0.16,
2368.000,0.16,
2367.000,0.15,
2366.000,0.15,
2365.000,0.15,
2364.000,0.15,
2363.000,0.15,
2362.000,0.15,
2361.000,0.14,
2360.000,0.14,
2359.000,0.14,
2358.000,0.14,
2357.000,0.13,
2356.000,0.13,
2355.000,0.13,
2354.000,0.13,
2353.000,0.13,
2352.000,0.13,
2351.000,0.13,
2350.000,0.12,
2349.000,0.12,
2348.000,0.12,
2347.000,0.12,
2346.000,0.12,
2345.000,0.12,
2344.000,0.12,
2343.000,0.12,
2342.000,0.12,
2341.000,0.11,
2340.000,0.11,
2339.000,0.11,
2338.000,0.11,
2337.000,0.11,
2336.000,0.11,
2335.000,0.11,
2334.000,0.11,
2333.000,0.11,
2332.000,0.11,
2331.000,0.11,
2330.000,0.1,
2329.000,0.1,
2328.000,0.1,
2327.000,0.1,
2326.000,0.1,
2325.000,0.1,
2324.000,0.1,
2323.000,0.1,
2322.000,0.1,
2321.000,0.1,
2320.000,0.1,
2319.000,0.1,
2318.000,0.09,
2317.000,0.09,
2316.000,0.09,
2315.000,0.09,
2314.000,0.09,
2313.000,0.09,
2312.000,0.09,
2311.000,0.09,
2310.000,0.09,
2309.000,0.09,
2308.000,0.09,
2307.000,0.09,
2306.000,0.09,
2305.000,0.09,
2304.000,0.09,
2303.000,0.09,
2302.000,0.09,
2301.000,0.09,
2300.000,0.08,
2299.000,0.08,
2298.000,0.08,
2297.000,0.08,
2296.000,0.08,
2295.000,0.08,
2294.000,0.08,
2293.000,0.08,
2292.000,0.08,
2291.000,0.08,
2290.000,0.08,
2289.000,0.08,
2288.000,0.08,
2287.000,0.08,
2286.000,0.08,
2285.000,0.08,
2284.000,0.07,
2283.000,0.07,
2282.000,0.07,
2281.000,0.07,
2280.000,0.07,
2279.000,0.07,
2278.000,0.07,
2277.000,0.07,
2276.000,0.07,
2275.000,0.07,
2274.000,0.07,
2273.000,0.07,
2272.000,0.07,
2271.000,0.07,
2270.000,0.07,
2269.000,0.07,
2268.000,0.07,
2267.000,0.07,
2266.000,0.07,
2265.000,0.07,
2264.000,0.07,
2263.000,0.07,
2262.000,0.07,
2261.000,0.07,
2260.000,0.07,
2259.000,0.07,
2258.000,0.07,
2257.000,0.07,
2256.000,0.07,
2255.000,0.07,
2254.000,0.07,
2253.000,0.07,
2252.000,0.07,
2251.000,0.07,
2250.000,0.07,
2249.000,0.07,
2248.000,0.07,
2247.000,0.07,
2246.000,0.07,
2245.000,0.07,
2244.000,0.07,
2243.000,0.06,
2242.000,0.07,
2241.000,0.07,
2240.000,0.07,
2239.000,0.07,
2238.000,0.07,
2237.000,0.07,
2236.000,0.07,
2235.000,0.07,
2234.000,0.07,
2233.000,0.06,
2232.000,0.06,
2231.000,0.06,
2230.000,0.06,
2229.000,0.06,
2228.000,0.06,
2227.000,0.06,
2226.000,0.06,
2225.000,0.06,
2224.000,0.06,
2223.000,0.06,
2222.000,0.06,
2221.000,0.06,
2220.000,0.06,
2219.000,0.06,
2218.000,0.06,
2217.000,0.06,
2216.000,0.06,
2215.000,0.06,
2214.000,0.06,
2213.000,0.06,
2212.000,0.06,
2211.000,0.06,
2210.000,0.06,
2209.000,0.06,
2208.000,0.06,
2207.000,0.06,
2206.000,0.06,
2205.000,0.06,
2204.000,0.06,
2203.000,0.06,
2202.000,0.06,
2201.000,0.06,
2200.000,0.06,
2199.000,0.06,
2198.000,0.06,
2197.000,0.06,
2196.000,0.06,
2195.000,0.06,
2194.000,0.06,
2193.000,0.06,
2192.000,0.06,
2191.000,0.06,
2190.000,0.06,
2189.000,0.06,
2188.000,0.06,
2187.000,0.06,
2186.000,0.06,
2185.000,0.06,
2184.000,0.06,
2183.000,0.06,
2182.000,0.06,
2181.000,0.06,
2180.000,0.06,
2179.000,0.06,
2178.000,0.06,
2177.000,0.06,
2176.000,0.06,
2175.000,0.06,
2174.000,0.06,
2173.000,0.06,
2172.000,0.06,
2171.000,0.06,
2170.000,0.06,
2169.000,0.06,
2168.000,0.06,
2167.000,0.06,
2166.000,0.06,
2165.000,0.06,
2164.000,0.06,
2163.000,0.06,
2162.000,0.06,
2161.000,0.06,
2160.000,0.06,
2159.000,0.06,
2158.000,0.06,
2157.000,0.06,
2156.000,0.06,
2155.000,0.06,
2154.000,0.07,
2153.000,0.07,
2152.000,0.07,
2151.000,0.07,
2150.000,0.06,
2149.000,0.06,
2148.000,0.06,
2147.000,0.06,
2146.000,0.06,
2145.000,0.06,
2144.000,0.06,
2143.000,0.06,
2142.000,0.06,
2141.000,0.06,
2140.000,0.07,
2139.000,0.07,
2138.000,0.07,
2137.000,0.07,
2136.000,0.07,
2135.000,0.06,
2134.000,0.06,
2133.000,0.07,
2132.000,0.07,
2131.000,0.07,
2130.000,0.07,
2129.000,0.07,
2128.000,0.07,
2127.000,0.07,
2126.000,0.07,
2125.000,0.07,
2124.000,0.07,
2123.000,0.07,
2122.000,0.07,
2121.000,0.07,
2120.000,0.07,
2119.000,0.07,
2118.000,0.07,
2117.000,0.07,
2116.000,0.07,
2115.000,0.07,
2114.000,0.07,
2113.000,0.07,
2112.000,0.07,
2111.000,0.07,
2110.000,0.07,
2109.000,0.07,
2108.000,0.08,
2107.000,0.08,
2106.000,0.07,
2105.000,0.07,
2104.000,0.07,
2103.000,0.07,
2102.000,0.08,
2101.000,0.08,
2100.000,0.08,
2099.000,0.08,
2098.000,0.08,
2097.000,0.08,
2096.000,0.08,
2095.000,0.08,
2094.000,0.08,
2093.000,0.08,
2092.000,0.08,
2091.000,0.08,
2090.000,0.08,
2089.000,0.08,
2088.000,0.08,
2087.000,0.08,
2086.000,0.09,
2085.000,0.09,
2084.000,0.09,
2083.000,0.09,
2082.000,0.09,
2081.000,0.09,
2080.000,0.09,
2079.000,0.09,
2078.000,0.09,
2077.000,0.09,
2076.000,0.09,
2075.000,0.09,
2074.000,0.09,
2073.000,0.1,
2072.000,0.1,
2071.000,0.1,
2070.000,0.1,
2069.000,0.1,
2068.000,0.1,
2067.000,0.1,
2066.000,0.1,
2065.000,0.1,
2064.000,0.1,
2063.000,0.1,
2062.000,0.1,
2061.000,0.1,
2060.000,0.1,
2059.000,0.1,
2058.000,0.11,
2057.000,0.11,
2056.000,0.11,
2055.000,0.11,
2054.000,0.11,
2053.000,0.11,
2052.000,0.11,
2051.000,0.12,
2050.000,0.12,
2049.000,0.12,
2048.000,0.12,
2047.000,0.12,
2046.000,0.12,
2045.000,0.12,
2044.000,0.13,
2043.000,0.13,
2042.000,0.13,
2041.000,0.13,
2040.000,0.13,
2039.000,0.13,
2038.000,0.14,
2037.000,0.14,
2036.000,0.14,
2035.000,0.14,
2034.000,0.14,
2033.000,0.15,
2032.000,0.15,
2031.000,0.15,
2030.000,0.15,
2029.000,0.16,
2028.000,0.16,
2027.000,0.16,
2026.000,0.16,
2025.000,0.17,
2024.000,0.17,
2023.000,0.17,
2022.000,0.17,
2021.000,0.18,
2020.000,0.18,
2019.000,0.18,
2018.000,0.19,
2017.000,0.19,
2016.000,0.19,
2015.000,0.2,
2014.000,0.2,
2013.000,0.2,
2012.000,0.21,
2011.000,0.21,
2010.000,0.22,
2009.000,0.22,
2008.000,0.22,
2007.000,0.23,
2006.000,0.23,
2005.000,0.24,
2004.000,0.24,
2003.000,0.25,
2002.000,0.25,
2001.000,0.26,
2000.000,0.27,
1999.000,0.27,
1998.000,0.28,
1997.000,0.29,
1996.000,0.29,
1995.000,0.3,
1994.000,0.31,
1993.000,0.31,
1992.000,0.32,
1991.000,0.33,
1990.000,0.34,
1989.000,0.35,
1988.000,0.35,
1987.000,0.36,
1986.000,0.37,
1985.000,0.38,
1984.000,0.39,
1983.000,0.4,
1982.000,0.41,
1981.000,0.43,
1980.000,0.44,
1979.000,0.45,
1978.000,0.46,
1977.000,0.47,
1976.000,0.48,
1975.000,0.5,
1974.000,0.51,
1973.000,0.52,
1972.000,0.53,
1971.000,0.55,
1970.000,0.56,
1969.000,0.58,
1968.000,0.59,
1967.000,0.61,
1966.000,0.63,
1965.000,0.65,
1964.000,0.67,
1963.000,0.69,
1962.000,0.7,
1961.000,0.72,
1960.000,0.74,
1959.000,0.76,
1958.000,0.79,
1957.000,0.81,
1956.000,0.83,
1955.000,0.85,
1954.000,0.87,
1953.000,0.89,
1952.000,0.91,
1951.000,0.93,
1950.000,0.95,
1949.000,0.96,
1948.000,0.98,
1947.000,1,
1946.000,1.02,
1945.000,1.04,
1944.000,1.06,
1943.000,1.07,
1942.000,1.09,
1941.000,1.11,
1940.000,1.12,
1939.000,1.14,
1938.000,1.15,
1937.000,1.17,
1936.000,1.19,
1935.000,1.2,
1934.000,1.21,
1933.000,1.22,
1932.000,1.23,
1931.000,1.23,
1930.000,1.23,
1929.000,1.23,
1928.000,1.23,
1927.000,1.23,
1926.000,1.23,
1925.000,1.23,
1924.000,1.22,
1923.000,1.21,
1922.000,1.21,
1921.000,1.2,
1920.000,1.19,
1919.000,1.17,
1918.000,1.16,
1917.000,1.14,
1916.000,1.13,
1915.000,1.12,
1914.000,1.11,
1913.000,1.1,
1912.000,1.09,
1911.000,1.07,
1910.000,1.06,
1909.000,1.05,
1908.000,1.04,
1907.000,1.02,
1906.000,1.01,
1905.000,0.99,
1904.000,0.97,
1903.000,0.96,
1902.000,0.95,
1901.000,0.93,
1900.000,0.92,
1899.000,0.9,
1898.000,0.88,
1897.000,0.87,
1896.000,0.85,
1895.000,0.84,
1894.000,0.83,
1893.000,0.81,
1892.000,0.79,
1891.000,0.78,
1890.000,0.76,
1889.000,0.74,
1888.000,0.73,
1887.000,0.72,
1886.000,0.7,
1885.000,0.68,
1884.000,0.67,
1883.000,0.65,
1882.000,0.64,
1881.000,0.62,
1880.000,0.61,
1879.000,0.6,
1878.000,0.58,
1877.000,0.57,
1876.000,0.55,
1875.000,0.54,
1874.000,0.53,
1873.000,0.52,
1872.000,0.51,
1871.000,0.49,
1870.000,0.48,
1869.000,0.48,
1868.000,0.47,
1867.000,0.46,
1866.000,0.45,
1865.000,0.44,
1864.000,0.43,
1863.000,0.42,
1862.000,0.41,
1861.000,0.4,
1860.000,0.39,
1859.000,0.38,
1858.000,0.37,
1857.000,0.36,
1856.000,0.35,
1855.000,0.34,
1854.000,0.33,
1853.000,0.32,
1852.000,0.31,
1851.000,0.3,
1850.000,0.3,
1849.000,0.29,
1848.000,0.28,
1847.000,0.27,
1846.000,0.26,
1845.000,0.25,
1844.000,0.24,
1843.000,0.23,
1842.000,0.23,
1841.000,0.22,
1840.000,0.21,
1839.000,0.21,
1838.000,0.2,
1837.000,0.2,
1836.000,0.19,
1835.000,0.19,
1834.000,0.18,
1833.000,0.17,
1832.000,0.17,
1831.000,0.16,
1830.000,0.16,
1829.000,0.16,
1828.000,0.15,
1827.000,0.15,
1826.000,0.14,
1825.000,0.14,
1824.000,0.13,
1823.000,0.13,
1822.000,0.13,
1821.000,0.12,
1820.000,0.12,
1819.000,0.12,
1818.000,0.12,
1817.000,0.11,
1816.000,0.11,
1815.000,0.11,
1814.000,0.1,
1813.000,0.1,
1812.000,0.1,
1811.000,0.1,
1810.000,0.09,
1809.000,0.09,
1808.000,0.09,
1807.000,0.09,
1806.000,0.09,
1805.000,0.09,
1804.000,0.09,
1803.000,0.09,
1802.000,0.09,
1801.000,0.08,
1800.000,0.08,
1799.000,0.08,
1798.000,0.08,
1797.000,0.08,
1796.000,0.08,
1795.000,0.08,
1794.000,0.07,
1793.000,0.07,
1792.000,0.07,
1791.000,0.07,
1790.000,0.07,
1789.000,0.07,
1788.000,0.06,
1787.000,0.06,
1786.000,0.06,
1785.000,0.06,
1784.000,0.06,
1783.000,0.06,
1782.000,0.06,
1781.000,0.06,
1780.000,0.06,
1779.000,0.06,
1778.000,0.06,
1777.000,0.06,
1776.000,0.05,
1775.000,0.05,
1774.000,0.05,
1773.000,0.05,
1772.000,0.05,
1771.000,0.05,
1770.000,0.04,
1769.000,0.04,
1768.000,0.04,
1767.000,0.04,
1766.000,0.04,
1765.000,0.04,
1764.000,0.04,
1763.000,0.04,
1762.000,0.04,
1761.000,0.04,
1760.000,0.04,
1759.000,0.04,
1758.000,0.04,
1757.000,0.04,
1756.000,0.03,
1755.000,0.03,
1754.000,0.03,
1753.000,0.03,
1752.000,0.03,
1751.000,0.03,
1750.000,0.03,
1749.000,0.03,
1748.000,0.03,
1747.000,0.03,
1746.000,0.03,
1745.000,0.03,
1744.000,0.03,
1743.000,0.03,
1742.000,0.03,
1741.000,0.03,
1740.000,0.03,
1739.000,0.03,
1738.000,0.03,
1737.000,0.03,
1736.000,0.03,
1735.000,0.03,
1734.000,0.03,
1733.000,0.03,
1732.000,0.03,
1731.000,0.03,
1730.000,0.03,
1729.000,0.03,
1728.000,0.03,
1727.000,0.02,
1726.000,0.02,
1725.000,0.02,
1724.000,0.01,
1723.000,0.01,
1722.000,0.01,
1721.000,0.01,
1720.000,0.01,
1719.000,0.01,
1718.000,1E-8,
1717.000,1E-8,
1716.000,1E-8,
1715.000,1E-8,
1714.000,1E-8,
1713.000,1E-8,
1712.000,1E-8,
1711.000,1E-8,
1710.000,1E-8,
1709.000,1E-8,
1708.000,1E-8,
1707.000,1E-8,
1706.000,1E-8,
1705.000,0.01,
1704.000,0.01,
1703.000,0.01,
1702.000,0.01,
1701.000,0.02,
1700.000,0.03,
1699.000,0.05,
1698.000,0.07,
1697.000,0.09,
1696.000,0.12,
1695.000,0.15,
1694.000,0.18,
1693.000,0.19,
1692.000,0.19,
1691.000,0.2,
1690.000,0.19,
1689.000,0.19,
1688.000,0.18,
1687.000,0.17,
1686.000,0.16,
1685.000,0.15,
1684.000,0.14,
1683.000,0.13,
1682.000,0.11,
1681.000,0.1,
1680.000,0.1,
1679.000,0.09,
1678.000,0.09,
1677.000,0.08,
1676.000,0.08,
1675.000,0.08,
1674.000,0.07,
1673.000,0.07,
1672.000,0.07,
1671.000,0.07,
1670.000,0.07,
1669.000,0.07,
1668.000,0.06,
1667.000,0.06,
1666.000,0.06,
1665.000,0.06,
1664.000,0.06,
1663.000,0.06,
1662.000,0.06,
1661.000,0.06,
1660.000,0.06,
1659.000,0.05,
1658.000,0.05,
1657.000,0.05,
1656.000,0.05,
1655.000,0.05,
1654.000,0.05,
1653.000,0.05,
1652.000,0.05,
1651.000,0.05,
1650.000,0.04,
1649.000,0.04,
1648.000,0.04,
1647.000,0.04,
1646.000,0.04,
1645.000,0.04,
1644.000,0.04,
1643.000,0.04,
1642.000,0.04,
1641.000,0.04,
1640.000,0.04,
1639.000,0.04,
1638.000,0.04,
1637.000,0.04,
1636.000,0.04,
1635.000,0.04,
1634.000,0.04,
1633.000,0.04,
1632.000,0.04,
1631.000,0.03,
1630.000,0.03,
1629.000,0.03,
1628.000,0.03,
1627.000,0.03,
1626.000,0.03,
1625.000,0.03,
1624.000,0.03,
1623.000,0.03,
1622.000,0.03,
1621.000,0.03,
1620.000,0.03,
1619.000,0.03,
1618.000,0.03,
1617.000,0.03,
1616.000,0.03,
1615.000,0.03,
1614.000,0.03,
1613.000,0.03,
1612.000,0.03,
1611.000,0.03,
1610.000,0.03,
1609.000,0.03,
1608.000,0.03,
1607.000,0.03,
1606.000,0.03,
1605.000,0.03,
1604.000,0.03,
1603.000,0.03,
1602.000,0.03,
1601.000,0.03,
1600.000,0.03,
1599.000,0.03,
1598.000,0.03,
1597.000,0.03,
1596.000,0.03,
1595.000,0.03,
1594.000,0.03,
1593.000,0.03,
1592.000,0.03,
1591.000,0.03,
1590.000,0.03,
1589.000,0.03,
1588.000,0.03,
1587.000,0.03,
1586.000,0.03,
1585.000,0.03,
1584.000,0.03,
1583.000,0.03,
1582.000,0.03,
1581.000,0.03,
1580.000,0.03,
1579.000,0.03,
1578.000,0.03,
1577.000,0.03,
1576.000,0.03,
1575.000,0.03,
1574.000,0.03,
1573.000,0.03,
1572.000,0.03,
1571.000,0.02,
1570.000,0.02,
1569.000,0.02,
1568.000,0.03,
1567.000,0.03,
1566.000,0.03,
1565.000,0.03,
1564.000,0.03,
1563.000,0.03,
1562.000,0.03,
1561.000,0.03,
1560.000,0.03,
1559.000,0.03,
1558.000,0.03,
1557.000,0.03,
1556.000,0.03,
1555.000,0.02,
1554.000,0.02,
1553.000,0.02,
1552.000,0.02,
1551.000,0.02,
1550.000,0.02,
1549.000,0.02,
1548.000,0.02,
1547.000,0.03,
1546.000,0.03,
1545.000,0.02,
1544.000,0.02,
1543.000,0.03,
1542.000,0.03,
1541.000,0.03,
1540.000,0.03,
1539.000,0.03,
1538.000,0.03,
1537.000,0.03,
1536.000,0.03,
1535.000,0.03,
1534.000,0.03,
1533.000,0.03,
1532.000,0.03,
1531.000,0.02,
1530.000,0.02,
1529.000,0.02,
1528.000,0.02,
1527.000,0.02,
1526.000,0.02,
1525.000,0.02,
1524.000,0.02,
1523.000,0.02,
1522.000,0.03,
1521.000,0.03,
1520.000,0.03,
1519.000,0.03,
1518.000,0.03,
1517.000,0.03,
1516.000,0.03,
1515.000,0.03,
1514.000,0.03,
1513.000,0.03,
1512.000,0.03,
1511.000,0.03,
1510.000,0.03,
1509.000,0.03,
1508.000,0.02,
1507.000,0.02,
1506.000,0.02,
1505.000,0.02,
1504.000,0.02,
1503.000,0.02,
1502.000,0.02,
1501.000,0.02,
1500.000,0.03,
1499.000,0.03,
1498.000,0.03,
1497.000,0.03,
1496.000,0.03,
1495.000,0.03,
1494.000,0.03,
1493.000,0.03,
1492.000,0.03,
1491.000,0.03,
1490.000,0.03,
1489.000,0.03,
1488.000,0.03,
1487.000,0.03,
1486.000,0.03,
1485.000,0.03,
1484.000,0.03,
1483.000,0.03,
1482.000,0.03,
1481.000,0.03,
1480.000,0.03,
1479.000,0.03,
1478.000,0.03,
1477.000,0.03,
1476.000,0.03,
1475.000,0.03,
1474.000,0.03,
1473.000,0.03,
1472.000,0.03,
1471.000,0.03,
1470.000,0.03,
1469.000,0.03,
1468.000,0.03,
1467.000,0.03,
1466.000,0.03,
1465.000,0.03,
1464.000,0.03,
1463.000,0.03,
1462.000,0.03,
1461.000,0.03,
1460.000,0.03,
1459.000,0.03,
1458.000,0.03,
1457.000,0.03,
1456.000,0.03,
1455.000,0.03,
1454.000,0.03,
1453.000,0.03,
1452.000,0.03,
1451.000,0.03,
1450.000,0.03,
1449.000,0.03,
1448.000,0.03,
1447.000,0.02,
1446.000,0.02,
1445.000,0.02,
1444.000,0.03,
1443.000,0.03,
1442.000,0.03,
1441.000,0.03,
1440.000,0.03,
1439.000,0.03,
1438.000,0.03,
1437.000,0.03,
1436.000,0.03,
1435.000,0.03,
1434.000,0.03,
1433.000,0.03,
1432.000,0.03,
1431.000,0.03,
1430.000,0.03,
1429.000,0.03,
1428.000,0.03,
1427.000,0.03,
1426.000,0.03,
1425.000,0.03,
1424.000,0.03,
1423.000,0.03,
1422.000,0.03,
1421.000,0.03,
1420.000,0.03,
1419.000,0.03,
1418.000,0.03,
1417.000,0.03,
1416.000,0.03,
1415.000,0.03,
1414.000,0.03,
1413.000,0.03,
1412.000,0.03,
1411.000,0.03,
1410.000,0.03,
1409.000,0.03,
1408.000,0.03,
1407.000,0.03,
1406.000,0.04,
1405.000,0.04,
1404.000,0.04,
1403.000,0.04,
1402.000,0.04,
1401.000,0.04,
1400.000,0.04,
1399.000,0.04,
1398.000,0.04,
1397.000,0.04,
1396.000,0.04,
1395.000,0.04,
1394.000,0.04,
1393.000,0.04,
1392.000,0.05,
1391.000,0.05,
1390.000,0.05,
1389.000,0.05,
1388.000,0.05,
1387.000,0.05,
1386.000,0.05,
1385.000,0.05,
1384.000,0.05,
1383.000,0.05,
1382.000,0.05,
1381.000,0.05,
1380.000,0.06,
1379.000,0.06,
1378.000,0.06,
1377.000,0.06,
1376.000,0.06,
1375.000,0.06,
1374.000,0.06,
1373.000,0.06,
1372.000,0.07,
1371.000,0.07,
1370.000,0.07,
1369.000,0.07,
1368.000,0.07,
1367.000,0.08,
1366.000,0.08,
1365.000,0.08,
1364.000,0.08,
1363.000,0.08,
1362.000,0.08,
1361.000,0.09,
1360.000,0.09,
1359.000,0.09,
1358.000,0.1,
1357.000,0.1,
1356.000,0.1,
1355.000,0.11,
1354.000,0.11,
1353.000,0.12,
1352.000,0.12,
1351.000,0.11,
1350.000,0.11,
1349.000,0.1,
1348.000,0.09,
1347.000,0.08,
1346.000,0.08,
1345.000,0.08,
1344.000,0.08,
1343.000,0.08,
1342.000,0.08,
1341.000,0.08,
1340.000,0.08,
1339.000,0.07,
1338.000,0.07,
1337.000,0.06,
1336.000,0.06,
1335.000,0.07,
1334.000,0.07,
1333.000,0.08,
1332.000,0.09,
1331.000,0.09,
1330.000,0.1,
1329.000,0.11,
1328.000,0.12,
1327.000,0.12,
1326.000,0.13,
1325.000,0.14,
1324.000,0.14,
1323.000,0.15,
1322.000,0.15,
1321.000,0.15,
1320.000,0.14,
1319.000,0.14,
1318.000,0.13,
1317.000,0.12,
1316.000,0.1,
1315.000,0.09,
1314.000,0.08,
1313.000,0.07,
1312.000,0.06,
1311.000,0.05,
1310.000,0.05,
1309.000,0.05,
1308.000,0.05,
1307.000,0.05,
1306.000,0.06,
1305.000,0.07,
1304.000,0.08,
1303.000,0.08,
1302.000,0.09,
1301.000,0.1,
1300.000,0.11,
1299.000,0.11,
1298.000,0.12,
1297.000,0.13,
1296.000,0.14,
1295.000,0.16,
1294.000,0.17,
1293.000,0.18,
1292.000,0.19,
1291.000,0.21,
1290.000,0.22,
1289.000,0.23,
1288.000,0.25,
1287.000,0.26,
1286.000,0.27,
1285.000,0.29,
1284.000,0.3,
1283.000,0.31,
1282.000,0.32,
1281.000,0.33,
1280.000,0.34,
1279.000,0.34,
1278.000,0.34,
1277.000,0.34,
1276.000,0.34,
1275.000,0.34,
1274.000,0.34,
1273.000,0.35,
1272.000,0.35,
1271.000,0.35,
1270.000,0.35,
1269.000,0.34,
1268.000,0.33,
1267.000,0.32,
1266.000,0.31,
1265.000,0.3,
1264.000,0.31,
1263.000,0.31,
1262.000,0.33,
1261.000,0.34,
1260.000,0.35,
1259.000,0.35,
1258.000,0.36,
1257.000,0.36,
1256.000,0.36,
1255.000,0.35,
1254.000,0.34,
1253.000,0.33,
1252.000,0.32,
1251.000,0.31,
1250.000,0.3,
1249.000,0.29,
1248.000,0.28,
1247.000,0.27,
1246.000,0.25,
1245.000,0.24,
1244.000,0.23,
1243.000,0.22,
1242.000,0.21,
1241.000,0.2,
1240.000,0.18,
1239.000,0.17,
1238.000,0.16,
1237.000,0.15,
1236.000,0.13,
1235.000,0.12,
1234.000,0.11,
1233.000,0.11,
1232.000,0.1,
1231.000,0.09,
1230.000,0.08,
1229.000,0.07,
1228.000,0.06,
1227.000,0.05,
1226.000,0.05,
1225.000,0.04,
1224.000,0.03,
1223.000,0.03,
1222.000,0.03,
1221.000,0.04,
1220.000,0.04,
1219.000,0.05,
1218.000,0.07,
1217.000,0.08,
1216.000,0.1,
1215.000,0.12,
1214.000,0.13,
1213.000,0.15,
1212.000,0.16,
1211.000,0.17,
1210.000,0.18,
1209.000,0.19,
1208.000,0.19,
1207.000,0.2,
1206.000,0.19,
1205.000,0.19,
1204.000,0.19,
1203.000,0.19,
1202.000,0.18,
1201.000,0.17,
1200.000,0.17,
1199.000,0.16,
1198.000,0.16,
1197.000,0.15,
1196.000,0.15,
1195.000,0.15,
1194.000,0.14,
1193.000,0.14,
1192.000,0.13,
1191.000,0.12,
1190.000,0.12,
1189.000,0.11,
1188.000,0.11,
1187.000,0.1,
1186.000,0.1,
1185.000,0.09,
1184.000,0.09,
1183.000,0.08,
1182.000,0.08,
1181.000,0.08,
1180.000,0.07,
1179.000,0.07,
1178.000,0.07,
1177.000,0.06,
1176.000,0.06,
1175.000,0.06,
1174.000,0.06,
1173.000,0.06,
1172.000,0.06,
1171.000,0.06,
1170.000,0.05,
1169.000,0.05,
1168.000,0.05,
1167.000,0.05,
1166.000,0.05,
1165.000,0.04,
1164.000,0.04,
1163.000,0.04,
1162.000,0.04,
1161.000,0.04,
1160.000,0.03,
1159.000,0.03,
1158.000,0.03,
1157.000,0.03,
1156.000,0.03,
1155.000,0.03,
1154.000,0.04,
1153.000,0.04,
1152.000,0.04,
1151.000,0.03,
1150.000,0.03,
1149.000,0.03,
1148.000,0.03,
1147.000,0.03,
1146.000,0.03,
1145.000,0.03,
1144.000,0.03,
1143.000,0.03,
1142.000,0.02,
1141.000,0.02,
1140.000,0.02,
1139.000,0.02,
1138.000,0.02,
1137.000,0.02,
1136.000,0.02,
1135.000,0.02,
1134.000,0.02,
1133.000,0.01,
1132.000,0.01,
1131.000,0.01,
1130.000,0.01,
1129.000,0.02,
1128.000,0.02,
1127.000,0.02,
1126.000,0.02,
1125.000,0.02,
1124.000,0.01,
1123.000,0.01,
1122.000,0.01,
1121.000,0.01,
1120.000,0.01,
1119.000,0.01,
1118.000,0.01,
1117.000,0.01,
1116.000,0.01,
1115.000,0.02,
1114.000,0.02,
1113.000,0.02,
1112.000,0.02,
1111.000,0.02,
1110.000,0.02,
1109.000,0.02,
1108.000,0.02,
1107.000,0.02,
1106.000,0.02,
1105.000,0.02,
1104.000,0.02,
1103.000,0.02,
1102.000,0.02,
1101.000,0.01,
1100.000,0.01,
1099.000,0.01,
1098.000,0.01,
1097.000,0.01,
1096.000,0.01,
1095.000,0.01,
1094.000,0.01,
1093.000,0.01,
1092.000,0.01,
1091.000,0.01,
1090.000,0.01,
1089.000,0.01,
1088.000,0.01,
1087.000,0.01,
1086.000,0.01,
1085.000,0.01,
1084.000,0.01,
1083.000,0.01,
1082.000,0.01,
1081.000,0.01,
1080.000,0.01,
1079.000,0.01,
1078.000,0.01,
1077.000,0.01,
1076.000,0.01,
1075.000,0.01,
1074.000,0.01,
1073.000,0.01,
1072.000,0.01,
1071.000,0.01,
1070.000,0.01,
1069.000,0.01,
1068.000,0.01,
1067.000,0.01,
1066.000,1E-8,
1065.000,1E-8,
1064.000,1E-8,
1063.000,1E-8,
1062.000,1E-8,
1061.000,1E-8,
1060.000,1E-8,
1059.000,0.01,
1058.000,0.01,
1057.000,0.01,
1056.000,0.01,
1055.000,0.01,
1054.000,0.01,
1053.000,0.01,
1052.000,0.01,
1051.000,0.01,
1050.000,0.01,
1049.000,0.01,
1048.000,0.01,
1047.000,0.01,
1046.000,0.01,
1045.000,0.01,
1044.000,1E-8,
1043.000,1E-8,
1042.000,1E-8,
1041.000,0.01,
1040.000,0.01,
1039.000,0.01,
1038.000,0.01,
1037.000,0.01,
1036.000,0.01,
1035.000,0.01,
1034.000,0.01,
1033.000,0.01,
1032.000,0.01,
1031.000,0.01,
1030.000,0.01,
1029.000,1E-8,
1028.000,1E-8,
1027.000,1E-8,
1026.000,1E-8,
1025.000,1E-8,
1024.000,1E-8,
1023.000,1E-8,
1022.000,1E-8,
1021.000,1E-8,
1020.000,1E-8,
1019.000,1E-8,
1018.000,1E-8,
1017.000,1E-8,
1016.000,1E-8,
1015.000,1E-8,
1014.000,1E-8,
1013.000,1E-8,
1012.000,1E-8,
1011.000,1E-8,
1010.000,1E-8,
1009.000,0.01,
1008.000,0.01,
1007.000,1E-8,
1006.000,1E-8,
1005.000,1E-8,
1004.000,0.01,
1003.000,0.01,
1002.000,0.01,
1001.000,1E-8,
1000.000,1E-8,
999.000,1E-8,
998.000,1E-8,
997.000,1E-8,
996.000,1E-8,
995.000,0.01,
994.000,1E-8,
993.000,1E-8,
992.000,1E-8,
991.000,1E-8,
990.000,1E-8,
989.000,1E-8,
988.000,1E-8,
987.000,1E-8,
986.000,1E-8,
985.000,1E-8,
984.000,1E-8,
983.000,1E-8,
982.000,1E-8,
981.000,1E-8,
980.000,0.01,
979.000,0.01,
978.000,0.01,
977.000,0.01,
976.000,1E-8,
975.000,1E-8,
974.000,1E-8,
973.000,1E-8,
972.000,1E-8,
971.000,1E-8,
970.000,1E-8,
969.000,1E-8,
968.000,1E-8,
967.000,1E-8,
966.000,1E-8,
965.000,1E-8,
964.000,1E-8,
963.000,1E-8,
962.000,1E-8,
961.000,1E-8,
960.000,1E-8,
959.000,1E-8,
958.000,1E-8,
957.000,1E-8,
956.000,1E-8,
955.000,1E-8,
954.000,0.01,
953.000,0.01,
952.000,1E-8,
951.000,1E-8,
950.000,0.01,
949.000,0.01,
948.000,1E-8,
947.000,1E-8,
946.000,1E-8,
945.000,0.01,
944.000,1E-8,
943.000,1E-8,
942.000,1E-8,
941.000,1E-8,
940.000,1E-8,
939.000,1E-8,
938.000,1E-8,
937.000,1E-8,
936.000,1E-8,
935.000,1E-8,
934.000,1E-8,
933.000,1E-8,
932.000,1E-8,
931.000,1E-8,
930.000,1E-8,
929.000,1E-8,
928.000,1E-8,
927.000,1E-8,
926.000,1E-8,
925.000,1E-8,
924.000,1E-8,
923.000,1E-8,
922.000,0.01,
921.000,0.01,
920.000,0.01,
919.000,0.01,
918.000,0.01,
917.000,0.01,
916.000,0.01,
915.000,1E-8,
914.000,1E-8,
913.000,1E-8,
912.000,1E-8,
911.000,1E-8,
910.000,1E-8,
909.000,1E-8,
908.000,1E-8,
907.000,1E-8,
906.000,1E-8,
905.000,1E-8,
904.000,1E-8,
903.000,1E-8,
902.000,1E-8,
901.000,1E-8,
900.000,1E-8,
899.000,1E-8,
898.000,1E-8,
897.000,1E-8,
896.000,0.01,
895.000,0.01,
894.000,0.01,
893.000,0.01,
892.000,0.01,
891.000,0.01,
890.000,0.01,
889.000,1E-8,
888.000,1E-8,
887.000,1E-8,
886.000,1E-8,
885.000,1E-8,
884.000,1E-8,
883.000,1E-8,
882.000,1E-8,
881.000,1E-8,
880.000,1E-8,
879.000,1E-8,
878.000,1E-8,
877.000,1E-8,
876.000,1E-8,
875.000,0.01,
874.000,0.01,
873.000,0.01,
872.000,0.01,
871.000,0.01,
870.000,0.01,
869.000,0.01,
868.000,1E-8,
867.000,1E-8,
866.000,1E-8,
865.000,0.01,
864.000,0.01,
863.000,0.01,
862.000,0.01,
861.000,0.01,
860.000,0.01,
859.000,0.01,
858.000,0.01,
857.000,0.01,
856.000,0.01,
855.000,0.01,
854.000,0.01,
853.000,0.01,
852.000,0.01,
851.000,0.01,
850.000,0.01,
849.000,1E-8,
848.000,1E-8,
847.000,1E-8,
846.000,1E-8,
845.000,1E-8,
844.000,1E-8,
843.000,1E-8,
842.000,1E-8,
841.000,1E-8,
840.000,1E-8,
839.000,1E-8,
838.000,1E-8,
837.000,1E-8,
836.000,1E-8,
835.000,1E-8,
834.000,1E-8,
833.000,1E-8,
832.000,1E-8,
831.000,1E-8,
830.000,1E-8,
829.000,1E-8,
828.000,1E-8,
827.000,1E-8,
826.000,1E-8,
825.000,1E-8,
824.000,1E-8,
823.000,1E-8,
822.000,1E-8,
821.000,1E-8,
820.000,0.01,
819.000,0.01,
818.000,0.01,
817.000,0.01,
816.000,0.01,
815.000,0.01,
814.000,0.01,
813.000,1E-8,
812.000,0.01,
811.000,0.01,
810.000,0.01,
809.000,1E-8,
808.000,0.01,
807.000,0.01,
806.000,0.01,
805.000,0.01,
804.000,1E-8,
803.000,1E-8,
802.000,1E-8,
801.000,1E-8,
800.000,1E-8,
799.000,1E-8,
798.000,1E-8,
797.000,1E-8,
796.000,1E-8,
795.000,1E-8,
794.000,0.01,
793.000,0.01,
792.000,0.01,
791.000,1E-8,
790.000,1E-8,
789.000,1E-8,
788.000,0.01,
787.000,1E-8,
786.000,1E-8,
785.000,1E-8,
784.000,1E-8,
783.000,1E-8,
782.000,0.01,
781.000,0.01,
780.000,0.01,
779.000,0.01,
778.000,0.01,
777.000,1E-8,
776.000,1E-8,
775.000,1E-8,
774.000,0.01,
773.000,0.01,
772.000,0.01,
771.000,0.01,
770.000,0.01,
769.000,0.01,
768.000,0.01,
767.000,1E-8,
766.000,1E-8,
765.000,1E-8,
764.000,1E-8,
763.000,1E-8,
762.000,1E-8,
761.000,1E-8,
760.000,1E-8,
759.000,0.01,
758.000,1E-8,
757.000,1E-8,
756.000,0.01,
755.000,0.01,
754.000,0.01,
753.000,0.01,
752.000,0.01,
751.000,1E-8,
750.000,1E-8,
749.000,0.01,
748.000,0.01,
747.000,1E-8,
746.000,1E-8,
745.000,1E-8,
744.000,1E-8,
743.000,1E-8,
742.000,1E-8,
741.000,0.01,
740.000,0.01,
739.000,0.01,
738.000,1E-8,
737.000,1E-8,
736.000,0.01,
735.000,0.01,
734.000,0.01,
733.000,0.01,
732.000,0.01,
731.000,0.01,
730.000,0.01,
729.000,0.01,
728.000,0.01,
727.000,0.01,
726.000,0.01,
725.000,0.01,
724.000,0.01,
723.000,1E-8,
722.000,1E-8,
721.000,0.01,
720.000,0.01,
719.000,0.01,
718.000,0.01,
717.000,0.01,
716.000,0.01,
715.000,0.01,
714.000,0.01,
713.000,0.01,
712.000,0.01,
711.000,0.01,
710.000,0.01,
709.000,1E-8,
708.000,1E-8,
707.000,1E-8,
706.000,0.01,
705.000,0.01,
704.000,1E-8,
703.000,1E-8,
702.000,1E-8,
701.000,1E-8,
700.000,1E-8,
699.000,1E-8,
698.000,1E-8,
697.000,1E-8,
696.000,1E-8,
695.000,1E-8,
694.000,1E-8,
693.000,1E-8,
692.000,0.01,
691.000,0.01,
690.000,1E-8,
689.000,1E-8,
688.000,0.01,
687.000,0.01,
686.000,0.01,
685.000,0.01,
684.000,0.01,
683.000,0.01,
682.000,0.01,
681.000,0.01,
680.000,0.01,
679.000,1E-8,
678.000,1E-8,
677.000,0.01,
676.000,0.01,
675.000,0.01,
674.000,1E-8,
673.000,1E-8,
672.000,0.01,
671.000,0.01,
670.000,1E-8,
669.000,1E-8,
668.000,1E-8,
667.000,1E-8,
666.000,0.01,
665.000,0.01,
664.000,0.01,
663.000,1E-8,
662.000,1E-8,
661.000,1E-8,
660.000,1E-8,
659.000,1E-8,
658.000,0.01,
657.000,1E-8,
656.000,1E-8,
655.000,1E-8,
654.000,0.01,
653.000,0.01,
652.000,0.01,
651.000,0.01,
650.000,0.01,
649.000,0.01,
648.000,0.01,
647.000,0.01,
646.000,0.01,
645.000,0.01,
644.000,0.01,
643.000,0.01,
642.000,0.01,
641.000,1E-8,
640.000,1E-8,
639.000,1E-8,
638.000,0.01,
637.000,0.01,
636.000,0.01,
635.000,1E-8,
634.000,0.01,
633.000,0.01,
632.000,0.01,
631.000,0.02,
630.000,0.02,
629.000,0.01,
628.000,0.01,
627.000,0.02,
626.000,0.02,
625.000,0.02,
624.000,0.02,
623.000,0.01,
622.000,1E-8,
621.000,1E-8,
620.000,0.01,
619.000,1E-8,
618.000,1E-8,
617.000,1E-8,
616.000,1E-8,
615.000,1E-8,
614.000,1E-8,
613.000,1E-8,
612.000,1E-8,
611.000,1E-8,
610.000,0.01,
609.000,0.01,
608.000,0.01,
607.000,0.01,
606.000,0.01,
605.000,1E-8,
604.000,1E-8,
603.000,0.01,
602.000,0.01,
601.000,0.01,
600.000,0.01,
599.000,0.01,
598.000,0.01,
597.000,0.01,
596.000,1E-8,
595.000,0.01,
594.000,0.01,
593.000,0.01,
592.000,0.01,
591.000,0.01,
590.000,0.02,
589.000,0.02,
588.000,0.02,
587.000,0.02,
586.000,0.01,
585.000,1E-8,
584.000,0.01,
583.000,0.01,
582.000,0.01,
581.000,0.01,
580.000,0.01,
579.000,1E-8,
578.000,1E-8,
577.000,1E-8,
576.000,1E-8,
575.000,0.01,
574.000,0.01,
573.000,0.02,
572.000,0.02,
571.000,0.02,
570.000,0.02,
569.000,0.01,
568.000,1E-8,
567.000,1E-8,
566.000,1E-8,
565.000,1E-8,
564.000,1E-8,
563.000,0.01,
562.000,0.01,
561.000,0.02,
560.000,0.02,
559.000,0.01,
558.000,1E-8,
557.000,0.01,
556.000,0.02,
555.000,0.03,
554.000,0.03,
553.000,0.02,
552.000,0.02,
551.000,0.02,
550.000,0.02,
549.000,0.02,
548.000,0.01,
547.000,0.01,
546.000,0.01,
545.000,0.01,
544.000,0.02,
543.000,0.03,
542.000,0.03,
541.000,0.03,
540.000,0.02,
539.000,0.01,
538.000,0.01,
537.000,0.02,
536.000,0.01,
535.000,0.01,
534.000,1E-8,
533.000,0.01,
532.000,0.02,
531.000,0.02,
530.000,0.02,
529.000,0.02,
528.000,0.03,
527.000,0.02,
526.000,0.02,
525.000,0.01,
524.000,0.01,
523.000,0.01,
522.000,0.01,
521.000,1E-8,
520.000,1E-8,
519.000,0.01,
518.000,0.01,
517.000,0.02,
516.000,0.03,
515.000,0.03,
514.000,0.04,
513.000,0.05,
512.000,0.05,
511.000,0.04,
510.000,0.03,
509.000,0.01,
508.000,1E-8,
507.000,1E-8,
506.000,1E-8,
505.000,0.01,
504.000,0.02,
503.000,0.02,
502.000,0.03,
501.000,0.02,
500.000,0.02,
499.000,0.02,
498.000,0.02,
497.000,0.03,
496.000,0.03,
495.000,0.02,
494.000,0.02,
493.000,0.02,
492.000,0.02,
491.000,0.01,
490.000,0.01,
489.000,0.01,
488.000,0.02,
487.000,0.02,
486.000,0.02,
485.000,0.01,
484.000,0.02,
483.000,0.03,
482.000,0.04,
481.000,0.04,
480.000,0.03,
479.000,0.02,
478.000,0.01,
477.000,0.01,
476.000,0.01,
475.000,0.01,
474.000,0.02,
473.000,0.03,
472.000,0.04,
471.000,0.05,
470.000,0.04,
469.000,0.04,
468.000,0.04,
467.000,0.05,
466.000,0.05,
465.000,0.05,
464.000,0.05,
463.000,0.05,
462.000,0.03,
461.000,0.02,
460.000,0.02,
459.000,0.03,
458.000,0.03,
457.000,0.02,
456.000,0.01,
455.000,0.01,
454.000,0.01,
453.000,0.02,
452.000,0.02,
451.000,0.04,
450.000,0.06,
449.000,0.08,
448.000,0.08,
447.000,0.07,
446.000,0.06,
445.000,0.04,
444.000,0.03,
443.000,0.03,
442.000,0.04,
441.000,0.05,
440.000,0.06,
439.000,0.06,
438.000,0.05,
437.000,0.03,
436.000,0.01,
435.000,0.03,
434.000,0.04,
433.000,0.04,
432.000,0.05,
431.000,0.05,
430.000,0.03,
429.000,0.04,
428.000,0.06,
427.000,0.05,
426.000,0.03,
425.000,0.03,
424.000,0.04,
423.000,0.06,
422.000,0.08,
421.000,0.1,
420.000,0.1,
419.000,0.08,
418.000,0.05,
417.000,0.03,
416.000,0.03,
415.000,0.02,
414.000,0.01,
413.000,0.02,
412.000,0.05,
411.000,0.08,
410.000,0.1,
409.000,0.09,
408.000,0.09,
407.000,0.1,
406.000,0.12,
405.000,0.12,
404.000,0.1,
403.000,0.05,
402.000,0.02,
401.000,0.09,
400.000,0.13,
