Created as New Dataset,d2o 035 By Administrator Date Monday, December 13 2021
cm-1,%T
7000.00,14.70
6999.00,14.71
6998.00,14.73
6997.00,14.74
6996.00,14.76
6995.00,14.76
6994.00,14.77
6993.00,14.76
6992.00,14.76
6991.00,14.76
6990.00,14.76
6989.00,14.75
6988.00,14.75
6987.00,14.74
6986.00,14.74
6985.00,14.72
6984.00,14.70
6983.00,14.68
6982.00,14.66
6981.00,14.64
6980.00,14.62
6979.00,14.60
6978.00,14.57
6977.00,14.55
6976.00,14.52
6975.00,14.50
6974.00,14.47
6973.00,14.45
6972.00,14.41
6971.00,14.38
6970.00,14.34
6969.00,14.30
6968.00,14.25
6967.00,14.21
6966.00,14.16
6965.00,14.13
6964.00,14.10
6963.00,14.06
6962.00,14.02
6961.00,13.98
6960.00,13.93
6959.00,13.88
6958.00,13.83
6957.00,13.77
6956.00,13.72
6955.00,13.68
6954.00,13.63
6953.00,13.58
6952.00,13.53
6951.00,13.49
6950.00,13.44
6949.00,13.40
6948.00,13.35
6947.00,13.30
6946.00,13.25
6945.00,13.20
6944.00,13.14
6943.00,13.09
6942.00,13.04
6941.00,13.00
6940.00,12.95
6939.00,12.91
6938.00,12.86
6937.00,12.81
6936.00,12.76
6935.00,12.70
6934.00,12.64
6933.00,12.59
6932.00,12.54
6931.00,12.49
6930.00,12.44
6929.00,12.39
6928.00,12.33
6927.00,12.28
6926.00,12.22
6925.00,12.16
6924.00,12.11
6923.00,12.07
6922.00,12.03
6921.00,11.98
6920.00,11.94
6919.00,11.89
6918.00,11.84
6917.00,11.79
6916.00,11.73
6915.00,11.67
6914.00,11.60
6913.00,11.54
6912.00,11.48
6911.00,11.43
6910.00,11.37
6909.00,11.32
6908.00,11.27
6907.00,11.23
6906.00,11.18
6905.00,11.14
6904.00,11.10
6903.00,11.06
6902.00,11.01
6901.00,10.96
6900.00,10.91
6899.00,10.86
6898.00,10.81
6897.00,10.76
6896.00,10.71
6895.00,10.66
6894.00,10.62
6893.00,10.57
6892.00,10.52
6891.00,10.47
6890.00,10.42
6889.00,10.37
6888.00,10.32
6887.00,10.28
6886.00,10.24
6885.00,10.19
6884.00,10.14
6883.00,10.09
6882.00,10.05
6881.00,10.00
6880.00,9.96
6879.00,9.91
6878.00,9.87
6877.00,9.82
6876.00,9.78
6875.00,9.73
6874.00,9.67
6873.00,9.62
6872.00,9.58
6871.00,9.54
6870.00,9.51
6869.00,9.47
6868.00,9.43
6867.00,9.39
6866.00,9.36
6865.00,9.32
6864.00,9.28
6863.00,9.23
6862.00,9.19
6861.00,9.15
6860.00,9.10
6859.00,9.06
6858.00,9.01
6857.00,8.97
6856.00,8.92
6855.00,8.88
6854.00,8.85
6853.00,8.82
6852.00,8.78
6851.00,8.75
6850.00,8.71
6849.00,8.67
6848.00,8.63
6847.00,8.59
6846.00,8.55
6845.00,8.51
6844.00,8.47
6843.00,8.43
6842.00,8.40
6841.00,8.36
6840.00,8.33
6839.00,8.29
6838.00,8.26
6837.00,8.23
6836.00,8.19
6835.00,8.16
6834.00,8.13
6833.00,8.09
6832.00,8.05
6831.00,8.01
6830.00,7.97
6829.00,7.92
6828.00,7.88
6827.00,7.85
6826.00,7.81
6825.00,7.77
6824.00,7.73
6823.00,7.70
6822.00,7.66
6821.00,7.62
6820.00,7.59
6819.00,7.55
6818.00,7.52
6817.00,7.49
6816.00,7.46
6815.00,7.43
6814.00,7.39
6813.00,7.36
6812.00,7.32
6811.00,7.28
6810.00,7.25
6809.00,7.22
6808.00,7.19
6807.00,7.15
6806.00,7.11
6805.00,7.07
6804.00,7.04
6803.00,7.02
6802.00,6.99
6801.00,6.95
6800.00,6.92
6799.00,6.90
6798.00,6.87
6797.00,6.83
6796.00,6.78
6795.00,6.74
6794.00,6.71
6793.00,6.69
6792.00,6.66
6791.00,6.64
6790.00,6.61
6789.00,6.58
6788.00,6.55
6787.00,6.51
6786.00,6.48
6785.00,6.44
6784.00,6.40
6783.00,6.37
6782.00,6.34
6781.00,6.31
6780.00,6.28
6779.00,6.26
6778.00,6.24
6777.00,6.22
6776.00,6.19
6775.00,6.16
6774.00,6.13
6773.00,6.10
6772.00,6.07
6771.00,6.04
6770.00,6.01
6769.00,5.98
6768.00,5.95
6767.00,5.92
6766.00,5.89
6765.00,5.86
6764.00,5.83
6763.00,5.81
6762.00,5.78
6761.00,5.75
6760.00,5.72
6759.00,5.68
6758.00,5.65
6757.00,5.62
6756.00,5.59
6755.00,5.56
6754.00,5.53
6753.00,5.51
6752.00,5.49
6751.00,5.46
6750.00,5.44
6749.00,5.41
6748.00,5.38
6747.00,5.36
6746.00,5.34
6745.00,5.31
6744.00,5.29
6743.00,5.27
6742.00,5.24
6741.00,5.22
6740.00,5.20
6739.00,5.18
6738.00,5.15
6737.00,5.12
6736.00,5.10
6735.00,5.08
6734.00,5.06
6733.00,5.03
6732.00,5.01
6731.00,4.98
6730.00,4.95
6729.00,4.93
6728.00,4.90
6727.00,4.86
6726.00,4.84
6725.00,4.82
6724.00,4.80
6723.00,4.79
6722.00,4.76
6721.00,4.73
6720.00,4.71
6719.00,4.68
6718.00,4.66
6717.00,4.63
6716.00,4.60
6715.00,4.58
6714.00,4.57
6713.00,4.55
6712.00,4.52
6711.00,4.49
6710.00,4.47
6709.00,4.44
6708.00,4.42
6707.00,4.41
6706.00,4.40
6705.00,4.38
6704.00,4.37
6703.00,4.35
6702.00,4.33
6701.00,4.31
6700.00,4.28
6699.00,4.25
6698.00,4.23
6697.00,4.21
6696.00,4.18
6695.00,4.16
6694.00,4.13
6693.00,4.11
6692.00,4.09
6691.00,4.08
6690.00,4.06
6689.00,4.05
6688.00,4.03
6687.00,4.01
6686.00,3.99
6685.00,3.97
6684.00,3.95
6683.00,3.92
6682.00,3.90
6681.00,3.89
6680.00,3.87
6679.00,3.85
6678.00,3.84
6677.00,3.84
6676.00,3.83
6675.00,3.82
6674.00,3.80
6673.00,3.78
6672.00,3.75
6671.00,3.73
6670.00,3.70
6669.00,3.68
6668.00,3.66
6667.00,3.64
6666.00,3.63
6665.00,3.62
6664.00,3.60
6663.00,3.59
6662.00,3.57
6661.00,3.55
6660.00,3.54
6659.00,3.52
6658.00,3.51
6657.00,3.49
6656.00,3.47
6655.00,3.46
6654.00,3.45
6653.00,3.44
6652.00,3.43
6651.00,3.42
6650.00,3.42
6649.00,3.42
6648.00,3.41
6647.00,3.40
6646.00,3.37
6645.00,3.35
6644.00,3.32
6643.00,3.29
6642.00,3.27
6641.00,3.26
6640.00,3.25
6639.00,3.25
6638.00,3.25
6637.00,3.25
6636.00,3.25
6635.00,3.24
6634.00,3.23
6633.00,3.22
6632.00,3.21
6631.00,3.20
6630.00,3.20
6629.00,3.19
6628.00,3.18
6627.00,3.17
6626.00,3.16
6625.00,3.15
6624.00,3.14
6623.00,3.13
6622.00,3.12
6621.00,3.11
6620.00,3.11
6619.00,3.10
6618.00,3.10
6617.00,3.09
6616.00,3.09
6615.00,3.09
6614.00,3.09
6613.00,3.09
6612.00,3.08
6611.00,3.08
6610.00,3.07
6609.00,3.07
6608.00,3.07
6607.00,3.06
6606.00,3.05
6605.00,3.05
6604.00,3.06
6603.00,3.06
6602.00,3.05
6601.00,3.05
6600.00,3.05
6599.00,3.05
6598.00,3.06
6597.00,3.06
6596.00,3.06
6595.00,3.06
6594.00,3.06
6593.00,3.06
6592.00,3.07
6591.00,3.07
6590.00,3.07
6589.00,3.07
6588.00,3.07
6587.00,3.07
6586.00,3.07
6585.00,3.08
6584.00,3.08
6583.00,3.09
6582.00,3.10
6581.00,3.11
6580.00,3.11
6579.00,3.12
6578.00,3.12
6577.00,3.12
6576.00,3.12
6575.00,3.13
6574.00,3.14
6573.00,3.15
6572.00,3.17
6571.00,3.18
6570.00,3.19
6569.00,3.19
6568.00,3.20
6567.00,3.20
6566.00,3.21
6565.00,3.22
6564.00,3.24
6563.00,3.26
6562.00,3.27
6561.00,3.29
6560.00,3.30
6559.00,3.31
6558.00,3.32
6557.00,3.32
6556.00,3.33
6555.00,3.34
6554.00,3.36
6553.00,3.37
6552.00,3.38
6551.00,3.40
6550.00,3.42
6549.00,3.44
6548.00,3.45
6547.00,3.47
6546.00,3.49
6545.00,3.51
6544.00,3.53
6543.00,3.55
6542.00,3.57
6541.00,3.58
6540.00,3.60
6539.00,3.61
6538.00,3.63
6537.00,3.65
6536.00,3.67
6535.00,3.69
6534.00,3.71
6533.00,3.72
6532.00,3.74
6531.00,3.76
6530.00,3.79
6529.00,3.81
6528.00,3.84
6527.00,3.86
6526.00,3.89
6525.00,3.91
6524.00,3.94
6523.00,3.97
6522.00,4.00
6521.00,4.03
6520.00,4.06
6519.00,4.09
6518.00,4.12
6517.00,4.15
6516.00,4.17
6515.00,4.20
6514.00,4.23
6513.00,4.26
6512.00,4.29
6511.00,4.32
6510.00,4.35
6509.00,4.38
6508.00,4.42
6507.00,4.45
6506.00,4.49
6505.00,4.53
6504.00,4.57
6503.00,4.60
6502.00,4.64
6501.00,4.68
6500.00,4.72
6499.00,4.76
6498.00,4.80
6497.00,4.83
6496.00,4.86
6495.00,4.90
6494.00,4.93
6493.00,4.97
6492.00,5.01
6491.00,5.06
6490.00,5.11
6489.00,5.16
6488.00,5.20
6487.00,5.25
6486.00,5.29
6485.00,5.33
6484.00,5.37
6483.00,5.42
6482.00,5.47
6481.00,5.52
6480.00,5.57
6479.00,5.63
6478.00,5.68
6477.00,5.74
6476.00,5.80
6475.00,5.85
6474.00,5.91
6473.00,5.96
6472.00,6.02
6471.00,6.07
6470.00,6.12
6469.00,6.17
6468.00,6.22
6467.00,6.28
6466.00,6.33
6465.00,6.39
6464.00,6.45
6463.00,6.51
6462.00,6.58
6461.00,6.64
6460.00,6.70
6459.00,6.77
6458.00,6.83
6457.00,6.90
6456.00,6.97
6455.00,7.04
6454.00,7.11
6453.00,7.18
6452.00,7.25
6451.00,7.32
6450.00,7.39
6449.00,7.46
6448.00,7.53
6447.00,7.60
6446.00,7.68
6445.00,7.75
6444.00,7.83
6443.00,7.91
6442.00,7.99
6441.00,8.06
6440.00,8.14
6439.00,8.21
6438.00,8.29
6437.00,8.36
6436.00,8.44
6435.00,8.51
6434.00,8.59
6433.00,8.67
6432.00,8.76
6431.00,8.84
6430.00,8.93
6429.00,9.01
6428.00,9.09
6427.00,9.18
6426.00,9.26
6425.00,9.34
6424.00,9.42
6423.00,9.51
6422.00,9.59
6421.00,9.68
6420.00,9.77
6419.00,9.85
6418.00,9.94
6417.00,10.02
6416.00,10.10
6415.00,10.19
6414.00,10.27
6413.00,10.35
6412.00,10.43
6411.00,10.51
6410.00,10.60
6409.00,10.68
6408.00,10.76
6407.00,10.85
6406.00,10.94
6405.00,11.02
6404.00,11.10
6403.00,11.19
6402.00,11.27
6401.00,11.35
6400.00,11.43
6399.00,11.52
6398.00,11.60
6397.00,11.67
6396.00,11.75
6395.00,11.82
6394.00,11.89
6393.00,11.95
6392.00,12.02
6391.00,12.09
6390.00,12.16
6389.00,12.23
6388.00,12.30
6387.00,12.37
6386.00,12.43
6385.00,12.49
6384.00,12.54
6383.00,12.59
6382.00,12.64
6381.00,12.69
6380.00,12.74
6379.00,12.79
6378.00,12.83
6377.00,12.88
6376.00,12.91
6375.00,12.95
6374.00,12.98
6373.00,13.01
6372.00,13.04
6371.00,13.07
6370.00,13.10
6369.00,13.12
6368.00,13.14
6367.00,13.17
6366.00,13.18
6365.00,13.20
6364.00,13.21
6363.00,13.23
6362.00,13.24
6361.00,13.24
6360.00,13.24
6359.00,13.24
6358.00,13.24
6357.00,13.23
6356.00,13.22
6355.00,13.22
6354.00,13.21
6353.00,13.20
6352.00,13.20
6351.00,13.19
6350.00,13.18
6349.00,13.16
6348.00,13.14
6347.00,13.12
6346.00,13.09
6345.00,13.06
6344.00,13.03
6343.00,13.00
6342.00,12.97
6341.00,12.94
6340.00,12.90
6339.00,12.87
6338.00,12.84
6337.00,12.81
6336.00,12.78
6335.00,12.74
6334.00,12.70
6333.00,12.66
6332.00,12.62
6331.00,12.58
6330.00,12.53
6329.00,12.49
6328.00,12.45
6327.00,12.40
6326.00,12.36
6325.00,12.31
6324.00,12.26
6323.00,12.22
6322.00,12.17
6321.00,12.13
6320.00,12.08
6319.00,12.03
6318.00,11.98
6317.00,11.94
6316.00,11.88
6315.00,11.83
6314.00,11.77
6313.00,11.72
6312.00,11.66
6311.00,11.61
6310.00,11.57
6309.00,11.52
6308.00,11.47
6307.00,11.42
6306.00,11.37
6305.00,11.31
6304.00,11.25
6303.00,11.20
6302.00,11.14
6301.00,11.08
6300.00,11.03
6299.00,10.98
6298.00,10.94
6297.00,10.89
6296.00,10.85
6295.00,10.80
6294.00,10.74
6293.00,10.69
6292.00,10.63
6291.00,10.58
6290.00,10.53
6289.00,10.48
6288.00,10.44
6287.00,10.39
6286.00,10.34
6285.00,10.28
6284.00,10.22
6283.00,10.17
6282.00,10.12
6281.00,10.07
6280.00,10.02
6279.00,9.97
6278.00,9.92
6277.00,9.88
6276.00,9.83
6275.00,9.78
6274.00,9.74
6273.00,9.69
6272.00,9.65
6271.00,9.60
6270.00,9.55
6269.00,9.49
6268.00,9.44
6267.00,9.40
6266.00,9.35
6265.00,9.31
6264.00,9.27
6263.00,9.22
6262.00,9.18
6261.00,9.14
6260.00,9.09
6259.00,9.04
6258.00,8.99
6257.00,8.95
6256.00,8.90
6255.00,8.85
6254.00,8.81
6253.00,8.77
6252.00,8.73
6251.00,8.69
6250.00,8.65
6249.00,8.61
6248.00,8.56
6247.00,8.52
6246.00,8.46
6245.00,8.41
6244.00,8.36
6243.00,8.32
6242.00,8.29
6241.00,8.25
6240.00,8.22
6239.00,8.19
6238.00,8.15
6237.00,8.12
6236.00,8.08
6235.00,8.03
6234.00,7.98
6233.00,7.94
6232.00,7.89
6231.00,7.86
6230.00,7.82
6229.00,7.78
6228.00,7.74
6227.00,7.69
6226.00,7.64
6225.00,7.60
6224.00,7.55
6223.00,7.51
6222.00,7.47
6221.00,7.43
6220.00,7.40
6219.00,7.37
6218.00,7.33
6217.00,7.30
6216.00,7.26
6215.00,7.23
6214.00,7.20
6213.00,7.16
6212.00,7.12
6211.00,7.08
6210.00,7.04
6209.00,7.00
6208.00,6.96
6207.00,6.93
6206.00,6.89
6205.00,6.85
6204.00,6.81
6203.00,6.77
6202.00,6.74
6201.00,6.70
6200.00,6.66
6199.00,6.63
6198.00,6.60
6197.00,6.57
6196.00,6.54
6195.00,6.50
6194.00,6.47
6193.00,6.43
6192.00,6.40
6191.00,6.36
6190.00,6.33
6189.00,6.30
6188.00,6.26
6187.00,6.23
6186.00,6.20
6185.00,6.17
6184.00,6.14
6183.00,6.10
6182.00,6.07
6181.00,6.03
6180.00,6.00
6179.00,5.97
6178.00,5.94
6177.00,5.90
6176.00,5.87
6175.00,5.83
6174.00,5.80
6173.00,5.76
6172.00,5.72
6171.00,5.69
6170.00,5.66
6169.00,5.63
6168.00,5.60
6167.00,5.57
6166.00,5.54
6165.00,5.51
6164.00,5.48
6163.00,5.44
6162.00,5.41
6161.00,5.38
6160.00,5.35
6159.00,5.32
6158.00,5.29
6157.00,5.25
6156.00,5.22
6155.00,5.19
6154.00,5.16
6153.00,5.13
6152.00,5.10
6151.00,5.08
6150.00,5.05
6149.00,5.03
6148.00,5.00
6147.00,4.97
6146.00,4.94
6145.00,4.91
6144.00,4.87
6143.00,4.84
6142.00,4.81
6141.00,4.78
6140.00,4.75
6139.00,4.72
6138.00,4.70
6137.00,4.67
6136.00,4.65
6135.00,4.62
6134.00,4.59
6133.00,4.56
6132.00,4.52
6131.00,4.49
6130.00,4.47
6129.00,4.44
6128.00,4.42
6127.00,4.40
6126.00,4.38
6125.00,4.35
6124.00,4.32
6123.00,4.30
6122.00,4.27
6121.00,4.24
6120.00,4.20
6119.00,4.18
6118.00,4.15
6117.00,4.13
6116.00,4.11
6115.00,4.08
6114.00,4.06
6113.00,4.04
6112.00,4.01
6111.00,3.99
6110.00,3.96
6109.00,3.93
6108.00,3.91
6107.00,3.89
6106.00,3.88
6105.00,3.86
6104.00,3.83
6103.00,3.81
6102.00,3.79
6101.00,3.76
6100.00,3.74
6099.00,3.72
6098.00,3.70
6097.00,3.68
6096.00,3.65
6095.00,3.63
6094.00,3.60
6093.00,3.57
6092.00,3.54
6091.00,3.52
6090.00,3.50
6089.00,3.47
6088.00,3.46
6087.00,3.44
6086.00,3.42
6085.00,3.39
6084.00,3.37
6083.00,3.35
6082.00,3.32
6081.00,3.30
6080.00,3.28
6079.00,3.26
6078.00,3.25
6077.00,3.23
6076.00,3.22
6075.00,3.20
6074.00,3.18
6073.00,3.15
6072.00,3.13
6071.00,3.11
6070.00,3.09
6069.00,3.07
6068.00,3.05
6067.00,3.03
6066.00,3.02
6065.00,3.00
6064.00,2.99
6063.00,2.97
6062.00,2.95
6061.00,2.93
6060.00,2.91
6059.00,2.88
6058.00,2.86
6057.00,2.84
6056.00,2.83
6055.00,2.82
6054.00,2.80
6053.00,2.77
6052.00,2.75
6051.00,2.73
6050.00,2.72
6049.00,2.70
6048.00,2.69
6047.00,2.67
6046.00,2.66
6045.00,2.64
6044.00,2.62
6043.00,2.61
6042.00,2.59
6041.00,2.58
6040.00,2.56
6039.00,2.55
6038.00,2.54
6037.00,2.53
6036.00,2.52
6035.00,2.50
6034.00,2.49
6033.00,2.48
6032.00,2.46
6031.00,2.45
6030.00,2.44
6029.00,2.43
6028.00,2.42
6027.00,2.41
6026.00,2.40
6025.00,2.39
6024.00,2.37
6023.00,2.36
6022.00,2.34
6021.00,2.33
6020.00,2.32
6019.00,2.31
6018.00,2.30
6017.00,2.30
6016.00,2.29
6015.00,2.29
6014.00,2.28
6013.00,2.27
6012.00,2.26
6011.00,2.25
6010.00,2.24
6009.00,2.24
6008.00,2.23
6007.00,2.21
6006.00,2.20
6005.00,2.19
6004.00,2.19
6003.00,2.18
6002.00,2.18
6001.00,2.18
6000.00,2.17
5999.00,2.16
5998.00,2.15
5997.00,2.14
5996.00,2.13
5995.00,2.13
5994.00,2.13
5993.00,2.13
5992.00,2.12
5991.00,2.12
5990.00,2.11
5989.00,2.11
5988.00,2.11
5987.00,2.10
5986.00,2.10
5985.00,2.10
5984.00,2.09
5983.00,2.09
5982.00,2.08
5981.00,2.08
5980.00,2.08
5979.00,2.09
5978.00,2.09
5977.00,2.09
5976.00,2.09
5975.00,2.08
5974.00,2.07
5973.00,2.07
5972.00,2.06
5971.00,2.06
5970.00,2.06
5969.00,2.06
5968.00,2.06
5967.00,2.06
5966.00,2.07
5965.00,2.07
5964.00,2.07
5963.00,2.08
5962.00,2.08
5961.00,2.09
5960.00,2.09
5959.00,2.09
5958.00,2.09
5957.00,2.09
5956.00,2.09
5955.00,2.09
5954.00,2.09
5953.00,2.10
5952.00,2.10
5951.00,2.11
5950.00,2.13
5949.00,2.13
5948.00,2.14
5947.00,2.13
5946.00,2.13
5945.00,2.13
5944.00,2.13
5943.00,2.13
5942.00,2.14
5941.00,2.14
5940.00,2.15
5939.00,2.16
5938.00,2.16
5937.00,2.17
5936.00,2.17
5935.00,2.18
5934.00,2.18
5933.00,2.19
5932.00,2.19
5931.00,2.20
5930.00,2.21
5929.00,2.21
5928.00,2.22
5927.00,2.23
5926.00,2.24
5925.00,2.24
5924.00,2.25
5923.00,2.27
5922.00,2.28
5921.00,2.30
5920.00,2.31
5919.00,2.32
5918.00,2.33
5917.00,2.34
5916.00,2.35
5915.00,2.36
5914.00,2.37
5913.00,2.38
5912.00,2.40
5911.00,2.41
5910.00,2.43
5909.00,2.44
5908.00,2.45
5907.00,2.46
5906.00,2.47
5905.00,2.48
5904.00,2.50
5903.00,2.51
5902.00,2.53
5901.00,2.55
5900.00,2.56
5899.00,2.58
5898.00,2.59
5897.00,2.61
5896.00,2.62
5895.00,2.64
5894.00,2.66
5893.00,2.68
5892.00,2.70
5891.00,2.72
5890.00,2.74
5889.00,2.76
5888.00,2.77
5887.00,2.79
5886.00,2.80
5885.00,2.82
5884.00,2.85
5883.00,2.87
5882.00,2.89
5881.00,2.92
5880.00,2.94
5879.00,2.97
5878.00,2.99
5877.00,3.01
5876.00,3.04
5875.00,3.06
5874.00,3.09
5873.00,3.11
5872.00,3.14
5871.00,3.16
5870.00,3.18
5869.00,3.21
5868.00,3.23
5867.00,3.26
5866.00,3.29
5865.00,3.33
5864.00,3.36
5863.00,3.39
5862.00,3.42
5861.00,3.45
5860.00,3.48
5859.00,3.51
5858.00,3.54
5857.00,3.57
5856.00,3.60
5855.00,3.64
5854.00,3.68
5853.00,3.72
5852.00,3.75
5851.00,3.79
5850.00,3.83
5849.00,3.86
5848.00,3.90
5847.00,3.94
5846.00,3.98
5845.00,4.02
5844.00,4.07
5843.00,4.11
5842.00,4.15
5841.00,4.20
5840.00,4.24
5839.00,4.28
5838.00,4.31
5837.00,4.35
5836.00,4.40
5835.00,4.45
5834.00,4.50
5833.00,4.55
5832.00,4.59
5831.00,4.64
5830.00,4.69
5829.00,4.74
5828.00,4.79
5827.00,4.84
5826.00,4.90
5825.00,4.95
5824.00,5.01
5823.00,5.06
5822.00,5.11
5821.00,5.16
5820.00,5.22
5819.00,5.27
5818.00,5.33
5817.00,5.39
5816.00,5.46
5815.00,5.52
5814.00,5.58
5813.00,5.64
5812.00,5.70
5811.00,5.77
5810.00,5.83
5809.00,5.90
5808.00,5.96
5807.00,6.02
5806.00,6.08
5805.00,6.14
5804.00,6.21
5803.00,6.28
5802.00,6.36
5801.00,6.43
5800.00,6.50
5799.00,6.58
5798.00,6.65
5797.00,6.72
5796.00,6.79
5795.00,6.87
5794.00,6.94
5793.00,7.02
5792.00,7.09
5791.00,7.16
5790.00,7.24
5789.00,7.32
5788.00,7.40
5787.00,7.49
5786.00,7.57
5785.00,7.65
5784.00,7.73
5783.00,7.81
5782.00,7.89
5781.00,7.97
5780.00,8.05
5779.00,8.13
5778.00,8.22
5777.00,8.30
5776.00,8.39
5775.00,8.47
5774.00,8.56
5773.00,8.64
5772.00,8.71
5771.00,8.79
5770.00,8.87
5769.00,8.95
5768.00,9.03
5767.00,9.12
5766.00,9.20
5765.00,9.28
5764.00,9.35
5763.00,9.43
5762.00,9.51
5761.00,9.59
5760.00,9.67
5759.00,9.74
5758.00,9.81
5757.00,9.87
5756.00,9.93
5755.00,10.00
5754.00,10.06
5753.00,10.12
5752.00,10.18
5751.00,10.24
5750.00,10.30
5749.00,10.36
5748.00,10.42
5747.00,10.47
5746.00,10.52
5745.00,10.57
5744.00,10.61
5743.00,10.66
5742.00,10.70
5741.00,10.74
5740.00,10.78
5739.00,10.81
5738.00,10.85
5737.00,10.88
5736.00,10.91
5735.00,10.94
5734.00,10.96
5733.00,10.99
5732.00,11.00
5731.00,11.02
5730.00,11.03
5729.00,11.04
5728.00,11.05
5727.00,11.07
5726.00,11.08
5725.00,11.09
5724.00,11.09
5723.00,11.10
5722.00,11.09
5721.00,11.09
5720.00,11.09
5719.00,11.08
5718.00,11.08
5717.00,11.06
5716.00,11.05
5715.00,11.03
5714.00,11.01
5713.00,10.98
5712.00,10.96
5711.00,10.93
5710.00,10.91
5709.00,10.88
5708.00,10.85
5707.00,10.82
5706.00,10.80
5705.00,10.77
5704.00,10.74
5703.00,10.71
5702.00,10.68
5701.00,10.64
5700.00,10.60
5699.00,10.57
5698.00,10.53
5697.00,10.49
5696.00,10.45
5695.00,10.41
5694.00,10.37
5693.00,10.32
5692.00,10.28
5691.00,10.24
5690.00,10.19
5689.00,10.15
5688.00,10.11
5687.00,10.06
5686.00,10.02
5685.00,9.97
5684.00,9.93
5683.00,9.88
5682.00,9.83
5681.00,9.78
5680.00,9.73
5679.00,9.69
5678.00,9.64
5677.00,9.59
5676.00,9.55
5675.00,9.50
5674.00,9.45
5673.00,9.40
5672.00,9.35
5671.00,9.30
5670.00,9.25
5669.00,9.20
5668.00,9.15
5667.00,9.11
5666.00,9.06
5665.00,9.01
5664.00,8.96
5663.00,8.91
5662.00,8.87
5661.00,8.82
5660.00,8.77
5659.00,8.73
5658.00,8.68
5657.00,8.63
5656.00,8.58
5655.00,8.54
5654.00,8.49
5653.00,8.44
5652.00,8.39
5651.00,8.34
5650.00,8.30
5649.00,8.25
5648.00,8.20
5647.00,8.16
5646.00,8.11
5645.00,8.07
5644.00,8.02
5643.00,7.97
5642.00,7.93
5641.00,7.88
5640.00,7.84
5639.00,7.79
5638.00,7.75
5637.00,7.71
5636.00,7.67
5635.00,7.63
5634.00,7.59
5633.00,7.54
5632.00,7.50
5631.00,7.46
5630.00,7.41
5629.00,7.37
5628.00,7.33
5627.00,7.29
5626.00,7.25
5625.00,7.20
5624.00,7.16
5623.00,7.12
5622.00,7.08
5621.00,7.04
5620.00,7.00
5619.00,6.97
5618.00,6.93
5617.00,6.89
5616.00,6.85
5615.00,6.81
5614.00,6.77
5613.00,6.73
5612.00,6.69
5611.00,6.66
5610.00,6.62
5609.00,6.58
5608.00,6.55
5607.00,6.51
5606.00,6.47
5605.00,6.44
5604.00,6.41
5603.00,6.37
5602.00,6.33
5601.00,6.29
5600.00,6.26
5599.00,6.22
5598.00,6.18
5597.00,6.15
5596.00,6.11
5595.00,6.08
5594.00,6.05
5593.00,6.01
5592.00,5.98
5591.00,5.94
5590.00,5.90
5589.00,5.87
5588.00,5.83
5587.00,5.79
5586.00,5.76
5585.00,5.72
5584.00,5.69
5583.00,5.65
5582.00,5.62
5581.00,5.59
5580.00,5.56
5579.00,5.53
5578.00,5.50
5577.00,5.46
5576.00,5.42
5575.00,5.39
5574.00,5.35
5573.00,5.32
5572.00,5.28
5571.00,5.25
5570.00,5.22
5569.00,5.19
5568.00,5.15
5567.00,5.12
5566.00,5.09
5565.00,5.06
5564.00,5.03
5563.00,4.99
5562.00,4.96
5561.00,4.93
5560.00,4.90
5559.00,4.87
5558.00,4.84
5557.00,4.81
5556.00,4.78
5555.00,4.75
5554.00,4.72
5553.00,4.69
5552.00,4.65
5551.00,4.62
5550.00,4.59
5549.00,4.56
5548.00,4.53
5547.00,4.50
5546.00,4.46
5545.00,4.43
5544.00,4.40
5543.00,4.37
5542.00,4.35
5541.00,4.32
5540.00,4.29
5539.00,4.27
5538.00,4.24
5537.00,4.21
5536.00,4.18
5535.00,4.15
5534.00,4.12
5533.00,4.10
5532.00,4.07
5531.00,4.04
5530.00,4.02
5529.00,3.99
5528.00,3.96
5527.00,3.93
5526.00,3.91
5525.00,3.88
5524.00,3.85
5523.00,3.82
5522.00,3.79
5521.00,3.76
5520.00,3.73
5519.00,3.71
5518.00,3.69
5517.00,3.67
5516.00,3.65
5515.00,3.63
5514.00,3.60
5513.00,3.57
5512.00,3.54
5511.00,3.51
5510.00,3.49
5509.00,3.46
5508.00,3.44
5507.00,3.42
5506.00,3.40
5505.00,3.38
5504.00,3.35
5503.00,3.32
5502.00,3.30
5501.00,3.27
5500.00,3.25
5499.00,3.23
5498.00,3.21
5497.00,3.18
5496.00,3.16
5495.00,3.14
5494.00,3.11
5493.00,3.09
5492.00,3.07
5491.00,3.04
5490.00,3.02
5489.00,3.00
5488.00,2.98
5487.00,2.97
5486.00,2.94
5485.00,2.92
5484.00,2.89
5483.00,2.87
5482.00,2.84
5481.00,2.82
5480.00,2.80
5479.00,2.78
5478.00,2.76
5477.00,2.74
5476.00,2.72
5475.00,2.70
5474.00,2.69
5473.00,2.67
5472.00,2.64
5471.00,2.62
5470.00,2.60
5469.00,2.58
5468.00,2.56
5467.00,2.54
5466.00,2.52
5465.00,2.50
5464.00,2.48
5463.00,2.46
5462.00,2.44
5461.00,2.42
5460.00,2.40
5459.00,2.38
5458.00,2.36
5457.00,2.34
5456.00,2.32
5455.00,2.30
5454.00,2.29
5453.00,2.27
5452.00,2.25
5451.00,2.24
5450.00,2.22
5449.00,2.20
5448.00,2.18
5447.00,2.16
5446.00,2.15
5445.00,2.13
5444.00,2.11
5443.00,2.10
5442.00,2.08
5441.00,2.06
5440.00,2.05
5439.00,2.03
5438.00,2.02
5437.00,2.00
5436.00,1.99
5435.00,1.97
5434.00,1.96
5433.00,1.95
5432.00,1.93
5431.00,1.92
5430.00,1.90
5429.00,1.89
5428.00,1.88
5427.00,1.87
5426.00,1.85
5425.00,1.84
5424.00,1.83
5423.00,1.82
5422.00,1.81
5421.00,1.79
5420.00,1.77
5419.00,1.76
5418.00,1.75
5417.00,1.74
5416.00,1.73
5415.00,1.72
5414.00,1.71
5413.00,1.70
5412.00,1.70
5411.00,1.69
5410.00,1.68
5409.00,1.67
5408.00,1.66
5407.00,1.65
5406.00,1.64
5405.00,1.62
5404.00,1.61
5403.00,1.60
5402.00,1.59
5401.00,1.58
5400.00,1.57
5399.00,1.56
5398.00,1.55
5397.00,1.54
5396.00,1.54
5395.00,1.53
5394.00,1.53
5393.00,1.52
5392.00,1.52
5391.00,1.52
5390.00,1.51
5389.00,1.51
5388.00,1.50
5387.00,1.50
5386.00,1.49
5385.00,1.49
5384.00,1.48
5383.00,1.48
5382.00,1.47
5381.00,1.47
5380.00,1.46
5379.00,1.45
5378.00,1.45
5377.00,1.44
5376.00,1.44
5375.00,1.44
5374.00,1.44
5373.00,1.43
5372.00,1.43
5371.00,1.42
5370.00,1.42
5369.00,1.41
5368.00,1.40
5367.00,1.40
5366.00,1.40
5365.00,1.40
5364.00,1.40
5363.00,1.40
5362.00,1.40
5361.00,1.40
5360.00,1.39
5359.00,1.39
5358.00,1.39
5357.00,1.38
5356.00,1.38
5355.00,1.38
5354.00,1.38
5353.00,1.38
5352.00,1.38
5351.00,1.38
5350.00,1.37
5349.00,1.37
5348.00,1.37
5347.00,1.37
5346.00,1.37
5345.00,1.37
5344.00,1.38
5343.00,1.38
5342.00,1.39
5341.00,1.39
5340.00,1.39
5339.00,1.40
5338.00,1.40
5337.00,1.40
5336.00,1.40
5335.00,1.40
5334.00,1.40
5333.00,1.39
5332.00,1.39
5331.00,1.39
5330.00,1.39
5329.00,1.39
5328.00,1.39
5327.00,1.39
5326.00,1.40
5325.00,1.40
5324.00,1.40
5323.00,1.40
5322.00,1.40
5321.00,1.40
5320.00,1.41
5319.00,1.41
5318.00,1.41
5317.00,1.41
5316.00,1.42
5315.00,1.42
5314.00,1.42
5313.00,1.42
5312.00,1.42
5311.00,1.43
5310.00,1.43
5309.00,1.44
5308.00,1.45
5307.00,1.46
5306.00,1.47
5305.00,1.47
5304.00,1.47
5303.00,1.47
5302.00,1.47
5301.00,1.48
5300.00,1.48
5299.00,1.49
5298.00,1.50
5297.00,1.50
5296.00,1.51
5295.00,1.51
5294.00,1.52
5293.00,1.52
5292.00,1.53
5291.00,1.53
5290.00,1.54
5289.00,1.55
5288.00,1.55
5287.00,1.56
5286.00,1.57
5285.00,1.58
5284.00,1.59
5283.00,1.60
5282.00,1.60
5281.00,1.61
5280.00,1.62
5279.00,1.63
5278.00,1.64
5277.00,1.65
5276.00,1.65
5275.00,1.66
5274.00,1.67
5273.00,1.68
5272.00,1.69
5271.00,1.70
5270.00,1.71
5269.00,1.72
5268.00,1.73
5267.00,1.74
5266.00,1.75
5265.00,1.77
5264.00,1.78
5263.00,1.80
5262.00,1.81
5261.00,1.82
5260.00,1.83
5259.00,1.84
5258.00,1.85
5257.00,1.86
5256.00,1.88
5255.00,1.89
5254.00,1.91
5253.00,1.92
5252.00,1.94
5251.00,1.96
5250.00,1.98
5249.00,2.00
5248.00,2.02
5247.00,2.04
5246.00,2.05
5245.00,2.07
5244.00,2.08
5243.00,2.10
5242.00,2.11
5241.00,2.13
5240.00,2.14
5239.00,2.16
5238.00,2.18
5237.00,2.20
5236.00,2.22
5235.00,2.24
5234.00,2.26
5233.00,2.29
5232.00,2.31
5231.00,2.33
5230.00,2.35
5229.00,2.38
5228.00,2.40
5227.00,2.43
5226.00,2.45
5225.00,2.48
5224.00,2.50
5223.00,2.53
5222.00,2.55
5221.00,2.58
5220.00,2.61
5219.00,2.63
5218.00,2.66
5217.00,2.68
5216.00,2.70
5215.00,2.73
5214.00,2.76
5213.00,2.80
5212.00,2.83
5211.00,2.87
5210.00,2.90
5209.00,2.93
5208.00,2.97
5207.00,3.00
5206.00,3.04
5205.00,3.07
5204.00,3.11
5203.00,3.15
5202.00,3.19
5201.00,3.22
5200.00,3.26
5199.00,3.30
5198.00,3.34
5197.00,3.38
5196.00,3.42
5195.00,3.46
5194.00,3.50
5193.00,3.54
5192.00,3.58
5191.00,3.63
5190.00,3.67
5189.00,3.72
5188.00,3.77
5187.00,3.82
5186.00,3.87
5185.00,3.92
5184.00,3.97
5183.00,4.02
5182.00,4.07
5181.00,4.12
5180.00,4.17
5179.00,4.23
5178.00,4.28
5177.00,4.33
5176.00,4.39
5175.00,4.44
5174.00,4.49
5173.00,4.55
5172.00,4.61
5171.00,4.68
5170.00,4.74
5169.00,4.80
5168.00,4.87
5167.00,4.93
5166.00,4.99
5165.00,5.05
5164.00,5.11
5163.00,5.18
5162.00,5.24
5161.00,5.31
5160.00,5.38
5159.00,5.45
5158.00,5.52
5157.00,5.59
5156.00,5.67
5155.00,5.74
5154.00,5.81
5153.00,5.88
5152.00,5.95
5151.00,6.03
5150.00,6.11
5149.00,6.18
5148.00,6.26
5147.00,6.33
5146.00,6.41
5145.00,6.49
5144.00,6.57
5143.00,6.64
5142.00,6.72
5141.00,6.80
5140.00,6.88
5139.00,6.96
5138.00,7.04
5137.00,7.12
5136.00,7.20
5135.00,7.28
5134.00,7.36
5133.00,7.44
5132.00,7.52
5131.00,7.60
5130.00,7.67
5129.00,7.75
5128.00,7.83
5127.00,7.90
5126.00,7.98
5125.00,8.06
5124.00,8.14
5123.00,8.21
5122.00,8.28
5121.00,8.34
5120.00,8.41
5119.00,8.48
5118.00,8.55
5117.00,8.62
5116.00,8.68
5115.00,8.74
5114.00,8.80
5113.00,8.85
5112.00,8.90
5111.00,8.96
5110.00,9.01
5109.00,9.05
5108.00,9.10
5107.00,9.15
5106.00,9.19
5105.00,9.23
5104.00,9.26
5103.00,9.30
5102.00,9.33
5101.00,9.36
5100.00,9.38
5099.00,9.41
5098.00,9.43
5097.00,9.45
5096.00,9.46
5095.00,9.47
5094.00,9.48
5093.00,9.49
5092.00,9.49
5091.00,9.50
5090.00,9.50
5089.00,9.49
5088.00,9.48
5087.00,9.48
5086.00,9.46
5085.00,9.45
5084.00,9.44
5083.00,9.42
5082.00,9.40
5081.00,9.38
5080.00,9.35
5079.00,9.33
5078.00,9.31
5077.00,9.28
5076.00,9.25
5075.00,9.22
5074.00,9.19
5073.00,9.15
5072.00,9.12
5071.00,9.09
5070.00,9.06
5069.00,9.02
5068.00,8.98
5067.00,8.94
5066.00,8.90
5065.00,8.86
5064.00,8.82
5063.00,8.77
5062.00,8.73
5061.00,8.68
5060.00,8.64
5059.00,8.60
5058.00,8.55
5057.00,8.51
5056.00,8.46
5055.00,8.41
5054.00,8.37
5053.00,8.32
5052.00,8.28
5051.00,8.23
5050.00,8.18
5049.00,8.13
5048.00,8.09
5047.00,8.04
5046.00,7.99
5045.00,7.94
5044.00,7.90
5043.00,7.85
5042.00,7.80
5041.00,7.76
5040.00,7.71
5039.00,7.66
5038.00,7.61
5037.00,7.57
5036.00,7.52
5035.00,7.47
5034.00,7.43
5033.00,7.38
5032.00,7.33
5031.00,7.29
5030.00,7.24
5029.00,7.19
5028.00,7.15
5027.00,7.10
5026.00,7.06
5025.00,7.01
5024.00,6.97
5023.00,6.92
5022.00,6.88
5021.00,6.83
5020.00,6.79
5019.00,6.75
5018.00,6.71
5017.00,6.67
5016.00,6.62
5015.00,6.58
5014.00,6.53
5013.00,6.49
5012.00,6.45
5011.00,6.41
5010.00,6.37
5009.00,6.33
5008.00,6.29
5007.00,6.24
5006.00,6.20
5005.00,6.16
5004.00,6.12
5003.00,6.08
5002.00,6.05
5001.00,6.01
5000.00,5.97
4999.00,5.93
4998.00,5.88
4997.00,5.84
4996.00,5.80
4995.00,5.76
4994.00,5.73
4993.00,5.69
4992.00,5.65
4991.00,5.62
4990.00,5.58
4989.00,5.54
4988.00,5.51
4987.00,5.47
4986.00,5.43
4985.00,5.39
4984.00,5.35
4983.00,5.32
4982.00,5.28
4981.00,5.25
4980.00,5.22
4979.00,5.18
4978.00,5.14
4977.00,5.11
4976.00,5.07
4975.00,5.04
4974.00,5.01
4973.00,4.97
4972.00,4.94
4971.00,4.90
4970.00,4.87
4969.00,4.83
4968.00,4.80
4967.00,4.76
4966.00,4.73
4965.00,4.69
4964.00,4.66
4963.00,4.63
4962.00,4.60
4961.00,4.57
4960.00,4.54
4959.00,4.50
4958.00,4.47
4957.00,4.44
4956.00,4.41
4955.00,4.37
4954.00,4.34
4953.00,4.31
4952.00,4.28
4951.00,4.25
4950.00,4.22
4949.00,4.19
4948.00,4.15
4947.00,4.12
4946.00,4.09
4945.00,4.06
4944.00,4.03
4943.00,4.01
4942.00,3.98
4941.00,3.95
4940.00,3.91
4939.00,3.88
4938.00,3.85
4937.00,3.82
4936.00,3.79
4935.00,3.76
4934.00,3.74
4933.00,3.71
4932.00,3.68
4931.00,3.65
4930.00,3.62
4929.00,3.59
4928.00,3.56
4927.00,3.53
4926.00,3.50
4925.00,3.48
4924.00,3.46
4923.00,3.43
4922.00,3.40
4921.00,3.37
4920.00,3.34
4919.00,3.31
4918.00,3.28
4917.00,3.26
4916.00,3.23
4915.00,3.21
4914.00,3.18
4913.00,3.16
4912.00,3.13
4911.00,3.10
4910.00,3.07
4909.00,3.05
4908.00,3.02
4907.00,2.99
4906.00,2.97
4905.00,2.95
4904.00,2.92
4903.00,2.90
4902.00,2.88
4901.00,2.86
4900.00,2.83
4899.00,2.81
4898.00,2.78
4897.00,2.76
4896.00,2.73
4895.00,2.71
4894.00,2.68
4893.00,2.66
4892.00,2.63
4891.00,2.61
4890.00,2.59
4889.00,2.57
4888.00,2.55
4887.00,2.52
4886.00,2.50
4885.00,2.48
4884.00,2.46
4883.00,2.44
4882.00,2.42
4881.00,2.40
4880.00,2.37
4879.00,2.35
4878.00,2.33
4877.00,2.31
4876.00,2.29
4875.00,2.27
4874.00,2.25
4873.00,2.22
4872.00,2.20
4871.00,2.18
4870.00,2.16
4869.00,2.14
4868.00,2.12
4867.00,2.10
4866.00,2.08
4865.00,2.06
4864.00,2.04
4863.00,2.02
4862.00,2.00
4861.00,1.98
4860.00,1.96
4859.00,1.94
4858.00,1.92
4857.00,1.90
4856.00,1.88
4855.00,1.86
4854.00,1.84
4853.00,1.82
4852.00,1.80
4851.00,1.78
4850.00,1.77
4849.00,1.75
4848.00,1.73
4847.00,1.72
4846.00,1.71
4845.00,1.69
4844.00,1.68
4843.00,1.66
4842.00,1.64
4841.00,1.62
4840.00,1.60
4839.00,1.59
4838.00,1.57
4837.00,1.56
4836.00,1.55
4835.00,1.53
4834.00,1.51
4833.00,1.50
4832.00,1.48
4831.00,1.47
4830.00,1.45
4829.00,1.44
4828.00,1.42
4827.00,1.41
4826.00,1.40
4825.00,1.38
4824.00,1.37
4823.00,1.36
4822.00,1.35
4821.00,1.33
4820.00,1.32
4819.00,1.31
4818.00,1.29
4817.00,1.28
4816.00,1.27
4815.00,1.26
4814.00,1.25
4813.00,1.24
4812.00,1.23
4811.00,1.22
4810.00,1.21
4809.00,1.20
4808.00,1.19
4807.00,1.18
4806.00,1.17
4805.00,1.16
4804.00,1.16
4803.00,1.15
4802.00,1.14
4801.00,1.13
4800.00,1.12
4799.00,1.11
4798.00,1.11
4797.00,1.10
4796.00,1.10
4795.00,1.09
4794.00,1.08
4793.00,1.07
4792.00,1.06
4791.00,1.06
4790.00,1.05
4789.00,1.05
4788.00,1.04
4787.00,1.03
4786.00,1.03
4785.00,1.02
4784.00,1.02
4783.00,1.01
4782.00,1.01
4781.00,1.00
4780.00,0.99
4779.00,0.98
4778.00,0.98
4777.00,0.97
4776.00,0.97
4775.00,0.96
4774.00,0.96
4773.00,0.96
4772.00,0.96
4771.00,0.95
4770.00,0.95
4769.00,0.94
4768.00,0.94
4767.00,0.93
4766.00,0.93
4765.00,0.93
4764.00,0.92
4763.00,0.92
4762.00,0.91
4761.00,0.91
4760.00,0.91
4759.00,0.90
4758.00,0.90
4757.00,0.90
4756.00,0.89
4755.00,0.89
4754.00,0.89
4753.00,0.89
4752.00,0.89
4751.00,0.89
4750.00,0.89
4749.00,0.88
4748.00,0.88
4747.00,0.88
4746.00,0.88
4745.00,0.88
4744.00,0.87
4743.00,0.87
4742.00,0.87
4741.00,0.87
4740.00,0.86
4739.00,0.86
4738.00,0.86
4737.00,0.86
4736.00,0.85
4735.00,0.85
4734.00,0.85
4733.00,0.85
4732.00,0.85
4731.00,0.85
4730.00,0.85
4729.00,0.85
4728.00,0.85
4727.00,0.85
4726.00,0.85
4725.00,0.85
4724.00,0.85
4723.00,0.85
4722.00,0.85
4721.00,0.85
4720.00,0.85
4719.00,0.85
4718.00,0.85
4717.00,0.85
4716.00,0.85
4715.00,0.85
4714.00,0.85
4713.00,0.85
4712.00,0.85
4711.00,0.85
4710.00,0.85
4709.00,0.85
4708.00,0.85
4707.00,0.85
4706.00,0.85
4705.00,0.85
4704.00,0.85
4703.00,0.86
4702.00,0.86
4701.00,0.86
4700.00,0.86
4699.00,0.86
4698.00,0.86
4697.00,0.86
4696.00,0.86
4695.00,0.86
4694.00,0.86
4693.00,0.87
4692.00,0.87
4691.00,0.87
4690.00,0.87
4689.00,0.87
4688.00,0.87
4687.00,0.87
4686.00,0.87
4685.00,0.87
4684.00,0.87
4683.00,0.88
4682.00,0.88
4681.00,0.88
4680.00,0.88
4679.00,0.89
4678.00,0.89
4677.00,0.89
4676.00,0.90
4675.00,0.90
4674.00,0.90
4673.00,0.90
4672.00,0.90
4671.00,0.91
4670.00,0.91
4669.00,0.91
4668.00,0.91
4667.00,0.92
4666.00,0.92
4665.00,0.93
4664.00,0.93
4663.00,0.93
4662.00,0.94
4661.00,0.94
4660.00,0.95
4659.00,0.95
4658.00,0.95
4657.00,0.96
4656.00,0.96
4655.00,0.97
4654.00,0.97
4653.00,0.98
4652.00,0.98
4651.00,0.98
4650.00,0.98
4649.00,0.99
4648.00,1.00
4647.00,1.00
4646.00,1.01
4645.00,1.02
4644.00,1.02
4643.00,1.03
4642.00,1.03
4641.00,1.03
4640.00,1.04
4639.00,1.05
4638.00,1.06
4637.00,1.07
4636.00,1.07
4635.00,1.08
4634.00,1.08
4633.00,1.09
4632.00,1.10
4631.00,1.10
4630.00,1.11
4629.00,1.11
4628.00,1.12
4627.00,1.13
4626.00,1.14
4625.00,1.15
4624.00,1.16
4623.00,1.17
4622.00,1.18
4621.00,1.19
4620.00,1.19
4619.00,1.20
4618.00,1.21
4617.00,1.22
4616.00,1.23
4615.00,1.24
4614.00,1.25
4613.00,1.27
4612.00,1.28
4611.00,1.29
4610.00,1.30
4609.00,1.31
4608.00,1.32
4607.00,1.33
4606.00,1.35
4605.00,1.36
4604.00,1.37
4603.00,1.39
4602.00,1.40
4601.00,1.42
4600.00,1.43
4599.00,1.44
4598.00,1.45
4597.00,1.47
4596.00,1.48
4595.00,1.50
4594.00,1.51
4593.00,1.53
4592.00,1.55
4591.00,1.57
4590.00,1.58
4589.00,1.60
4588.00,1.62
4587.00,1.64
4586.00,1.66
4585.00,1.68
4584.00,1.70
4583.00,1.72
4582.00,1.74
4581.00,1.76
4580.00,1.78
4579.00,1.80
4578.00,1.83
4577.00,1.85
4576.00,1.87
4575.00,1.89
4574.00,1.91
4573.00,1.94
4572.00,1.97
4571.00,2.00
4570.00,2.03
4569.00,2.05
4568.00,2.08
4567.00,2.11
4566.00,2.13
4565.00,2.16
4564.00,2.19
4563.00,2.22
4562.00,2.25
4561.00,2.29
4560.00,2.32
4559.00,2.35
4558.00,2.38
4557.00,2.42
4556.00,2.45
4555.00,2.48
4554.00,2.52
4553.00,2.56
4552.00,2.59
4551.00,2.63
4550.00,2.66
4549.00,2.70
4548.00,2.74
4547.00,2.78
4546.00,2.82
4545.00,2.86
4544.00,2.91
4543.00,2.95
4542.00,3.00
4541.00,3.04
4540.00,3.09
4539.00,3.13
4538.00,3.18
4537.00,3.23
4536.00,3.27
4535.00,3.32
4534.00,3.37
4533.00,3.42
4532.00,3.47
4531.00,3.53
4530.00,3.58
4529.00,3.64
4528.00,3.69
4527.00,3.75
4526.00,3.81
4525.00,3.86
4524.00,3.92
4523.00,3.97
4522.00,4.03
4521.00,4.09
4520.00,4.16
4519.00,4.22
4518.00,4.28
4517.00,4.35
4516.00,4.41
4515.00,4.48
4514.00,4.54
4513.00,4.61
4512.00,4.68
4511.00,4.75
4510.00,4.81
4509.00,4.88
4508.00,4.95
4507.00,5.02
4506.00,5.09
4505.00,5.16
4504.00,5.24
4503.00,5.31
4502.00,5.38
4501.00,5.45
4500.00,5.52
4499.00,5.60
4498.00,5.67
4497.00,5.74
4496.00,5.81
4495.00,5.88
4494.00,5.96
4493.00,6.02
4492.00,6.09
4491.00,6.16
4490.00,6.23
4489.00,6.30
4488.00,6.37
4487.00,6.43
4486.00,6.50
4485.00,6.56
4484.00,6.63
4483.00,6.69
4482.00,6.74
4481.00,6.80
4480.00,6.85
4479.00,6.90
4478.00,6.95
4477.00,7.00
4476.00,7.05
4475.00,7.09
4474.00,7.13
4473.00,7.17
4472.00,7.21
4471.00,7.24
4470.00,7.27
4469.00,7.29
4468.00,7.32
4467.00,7.34
4466.00,7.36
4465.00,7.38
4464.00,7.39
4463.00,7.40
4462.00,7.41
4461.00,7.41
4460.00,7.41
4459.00,7.41
4458.00,7.41
4457.00,7.40
4456.00,7.39
4455.00,7.38
4454.00,7.37
4453.00,7.35
4452.00,7.34
4451.00,7.32
4450.00,7.29
4449.00,7.27
4448.00,7.24
4447.00,7.21
4446.00,7.19
4445.00,7.16
4444.00,7.13
4443.00,7.10
4442.00,7.06
4441.00,7.03
4440.00,6.99
4439.00,6.96
4438.00,6.92
4437.00,6.88
4436.00,6.84
4435.00,6.80
4434.00,6.76
4433.00,6.72
4432.00,6.68
4431.00,6.64
4430.00,6.60
4429.00,6.55
4428.00,6.50
4427.00,6.46
4426.00,6.41
4425.00,6.37
4424.00,6.32
4423.00,6.28
4422.00,6.23
4421.00,6.19
4420.00,6.14
4419.00,6.10
4418.00,6.05
4417.00,6.01
4416.00,5.96
4415.00,5.92
4414.00,5.87
4413.00,5.83
4412.00,5.78
4411.00,5.73
4410.00,5.69
4409.00,5.65
4408.00,5.60
4407.00,5.56
4406.00,5.52
4405.00,5.47
4404.00,5.43
4403.00,5.39
4402.00,5.34
4401.00,5.30
4400.00,5.25
4399.00,5.21
4398.00,5.17
4397.00,5.13
4396.00,5.08
4395.00,5.04
4394.00,5.00
4393.00,4.96
4392.00,4.92
4391.00,4.87
4390.00,4.83
4389.00,4.79
4388.00,4.75
4387.00,4.71
4386.00,4.67
4385.00,4.64
4384.00,4.60
4383.00,4.56
4382.00,4.52
4381.00,4.48
4380.00,4.45
4379.00,4.41
4378.00,4.38
4377.00,4.34
4376.00,4.30
4375.00,4.27
4374.00,4.23
4373.00,4.20
4372.00,4.17
4371.00,4.13
4370.00,4.10
4369.00,4.07
4368.00,4.04
4367.00,4.01
4366.00,3.98
4365.00,3.95
4364.00,3.92
4363.00,3.89
4362.00,3.86
4361.00,3.84
4360.00,3.81
4359.00,3.78
4358.00,3.75
4357.00,3.73
4356.00,3.70
4355.00,3.67
4354.00,3.64
4353.00,3.62
4352.00,3.59
4351.00,3.57
4350.00,3.54
4349.00,3.51
4348.00,3.49
4347.00,3.46
4346.00,3.43
4345.00,3.41
4344.00,3.38
4343.00,3.35
4342.00,3.33
4341.00,3.30
4340.00,3.27
4339.00,3.25
4338.00,3.22
4337.00,3.20
4336.00,3.17
4335.00,3.15
4334.00,3.12
4333.00,3.10
4332.00,3.07
4331.00,3.05
4330.00,3.03
4329.00,3.00
4328.00,2.97
4327.00,2.95
4326.00,2.92
4325.00,2.89
4324.00,2.86
4323.00,2.84
4322.00,2.81
4321.00,2.78
4320.00,2.76
4319.00,2.73
4318.00,2.71
4317.00,2.68
4316.00,2.66
4315.00,2.63
4314.00,2.61
4313.00,2.59
4312.00,2.56
4311.00,2.54
4310.00,2.51
4309.00,2.49
4308.00,2.46
4307.00,2.44
4306.00,2.41
4305.00,2.39
4304.00,2.37
4303.00,2.34
4302.00,2.32
4301.00,2.30
4300.00,2.28
4299.00,2.25
4298.00,2.23
4297.00,2.21
4296.00,2.18
4295.00,2.16
4294.00,2.14
4293.00,2.12
4292.00,2.09
4291.00,2.07
4290.00,2.05
4289.00,2.03
4288.00,2.01
4287.00,1.99
4286.00,1.97
4285.00,1.95
4284.00,1.93
4283.00,1.91
4282.00,1.89
4281.00,1.87
4280.00,1.85
4279.00,1.84
4278.00,1.82
4277.00,1.80
4276.00,1.78
4275.00,1.76
4274.00,1.74
4273.00,1.72
4272.00,1.71
4271.00,1.69
4270.00,1.67
4269.00,1.65
4268.00,1.63
4267.00,1.62
4266.00,1.60
4265.00,1.59
4264.00,1.57
4263.00,1.55
4262.00,1.53
4261.00,1.51
4260.00,1.50
4259.00,1.48
4258.00,1.47
4257.00,1.45
4256.00,1.43
4255.00,1.42
4254.00,1.40
4253.00,1.38
4252.00,1.37
4251.00,1.35
4250.00,1.33
4249.00,1.32
4248.00,1.30
4247.00,1.29
4246.00,1.27
4245.00,1.26
4244.00,1.24
4243.00,1.22
4242.00,1.21
4241.00,1.19
4240.00,1.18
4239.00,1.17
4238.00,1.15
4237.00,1.14
4236.00,1.12
4235.00,1.11
4234.00,1.10
4233.00,1.08
4232.00,1.07
4231.00,1.05
4230.00,1.04
4229.00,1.03
4228.00,1.02
4227.00,1.01
4226.00,0.99
4225.00,0.98
4224.00,0.97
4223.00,0.96
4222.00,0.95
4221.00,0.94
4220.00,0.93
4219.00,0.92
4218.00,0.91
4217.00,0.89
4216.00,0.88
4215.00,0.87
4214.00,0.86
4213.00,0.86
4212.00,0.85
4211.00,0.84
4210.00,0.83
4209.00,0.83
4208.00,0.82
4207.00,0.81
4206.00,0.80
4205.00,0.79
4204.00,0.78
4203.00,0.78
4202.00,0.77
4201.00,0.76
4200.00,0.75
4199.00,0.75
4198.00,0.74
4197.00,0.73
4196.00,0.73
4195.00,0.72
4194.00,0.72
4193.00,0.71
4192.00,0.71
4191.00,0.70
4190.00,0.70
4189.00,0.69
4188.00,0.68
4187.00,0.68
4186.00,0.67
4185.00,0.67
4184.00,0.66
4183.00,0.66
4182.00,0.65
4181.00,0.65
4180.00,0.64
4179.00,0.64
4178.00,0.63
4177.00,0.63
4176.00,0.62
4175.00,0.62
4174.00,0.62
4173.00,0.61
4172.00,0.61
4171.00,0.61
4170.00,0.60
4169.00,0.60
4168.00,0.60
4167.00,0.59
4166.00,0.59
4165.00,0.59
4164.00,0.58
4163.00,0.58
4162.00,0.58
4161.00,0.57
4160.00,0.57
4159.00,0.57
4158.00,0.57
4157.00,0.56
4156.00,0.56
4155.00,0.56
4154.00,0.55
4153.00,0.55
4152.00,0.55
4151.00,0.55
4150.00,0.54
4149.00,0.54
4148.00,0.54
4147.00,0.54
4146.00,0.54
4145.00,0.54
4144.00,0.53
4143.00,0.53
4142.00,0.53
4141.00,0.53
4140.00,0.53
4139.00,0.53
4138.00,0.53
4137.00,0.52
4136.00,0.52
4135.00,0.52
4134.00,0.52
4133.00,0.52
4132.00,0.51
4131.00,0.51
4130.00,0.51
4129.00,0.51
4128.00,0.51
4127.00,0.50
4126.00,0.50
4125.00,0.50
4124.00,0.50
4123.00,0.50
4122.00,0.50
4121.00,0.50
4120.00,0.50
4119.00,0.50
4118.00,0.50
4117.00,0.50
4116.00,0.50
4115.00,0.50
4114.00,0.49
4113.00,0.49
4112.00,0.49
4111.00,0.49
4110.00,0.49
4109.00,0.49
4108.00,0.49
4107.00,0.49
4106.00,0.49
4105.00,0.49
4104.00,0.49
4103.00,0.49
4102.00,0.49
4101.00,0.48
4100.00,0.48
4099.00,0.48
4098.00,0.48
4097.00,0.48
4096.00,0.48
4095.00,0.48
4094.00,0.48
4093.00,0.48
4092.00,0.48
4091.00,0.49
4090.00,0.49
4089.00,0.48
4088.00,0.48
4087.00,0.48
4086.00,0.48
4085.00,0.48
4084.00,0.49
4083.00,0.49
4082.00,0.49
4081.00,0.49
4080.00,0.49
4079.00,0.49
4078.00,0.49
4077.00,0.49
4076.00,0.49
4075.00,0.49
4074.00,0.49
4073.00,0.49
4072.00,0.49
4071.00,0.49
4070.00,0.49
4069.00,0.49
4068.00,0.49
4067.00,0.49
4066.00,0.49
4065.00,0.49
4064.00,0.49
4063.00,0.50
4062.00,0.50
4061.00,0.49
4060.00,0.49
4059.00,0.50
4058.00,0.50
4057.00,0.50
4056.00,0.50
4055.00,0.50
4054.00,0.50
4053.00,0.50
4052.00,0.51
4051.00,0.51
4050.00,0.51
4049.00,0.51
4048.00,0.51
4047.00,0.51
4046.00,0.51
4045.00,0.52
4044.00,0.52
4043.00,0.52
4042.00,0.52
4041.00,0.52
4040.00,0.53
4039.00,0.53
4038.00,0.53
4037.00,0.53
4036.00,0.53
4035.00,0.53
4034.00,0.53
4033.00,0.54
4032.00,0.54
4031.00,0.54
4030.00,0.54
4029.00,0.54
4028.00,0.55
4027.00,0.55
4026.00,0.55
4025.00,0.56
4024.00,0.56
4023.00,0.56
4022.00,0.56
4021.00,0.56
4020.00,0.57
4019.00,0.57
4018.00,0.57
4017.00,0.58
4016.00,0.58
4015.00,0.58
4014.00,0.59
4013.00,0.59
4012.00,0.59
4011.00,0.60
4010.00,0.60
4009.00,0.60
4008.00,0.61
4007.00,0.61
4006.00,0.62
4005.00,0.62
4004.00,0.62
4003.00,0.62
4002.00,0.63
4001.00,0.63
4000.00,0.64
3999.00,0.64
3998.00,0.65
3997.00,0.65
3996.00,0.66
3995.00,0.66
3994.00,0.66
3993.00,0.67
3992.00,0.67
3991.00,0.68
3990.00,0.68
3989.00,0.69
3988.00,0.69
3987.00,0.70
3986.00,0.71
3985.00,0.71
3984.00,0.72
3983.00,0.72
3982.00,0.73
3981.00,0.74
3980.00,0.74
3979.00,0.75
3978.00,0.76
3977.00,0.76
3976.00,0.77
3975.00,0.77
3974.00,0.78
3973.00,0.79
3972.00,0.79
3971.00,0.80
3970.00,0.81
3969.00,0.82
3968.00,0.82
3967.00,0.83
3966.00,0.84
3965.00,0.85
3964.00,0.86
3963.00,0.87
3962.00,0.88
3961.00,0.89
3960.00,0.90
3959.00,0.91
3958.00,0.92
3957.00,0.93
3956.00,0.94
3955.00,0.95
3954.00,0.96
3953.00,0.97
3952.00,0.98
3951.00,1.00
3950.00,1.01
3949.00,1.02
3948.00,1.03
3947.00,1.04
3946.00,1.06
3945.00,1.07
3944.00,1.09
3943.00,1.10
3942.00,1.11
3941.00,1.13
3940.00,1.14
3939.00,1.16
3938.00,1.17
3937.00,1.19
3936.00,1.20
3935.00,1.22
3934.00,1.24
3933.00,1.26
3932.00,1.28
3931.00,1.30
3930.00,1.32
3929.00,1.34
3928.00,1.36
3927.00,1.38
3926.00,1.40
3925.00,1.42
3924.00,1.45
3923.00,1.47
3922.00,1.49
3921.00,1.52
3920.00,1.54
3919.00,1.57
3918.00,1.59
3917.00,1.62
3916.00,1.64
3915.00,1.67
3914.00,1.69
3913.00,1.72
3912.00,1.75
3911.00,1.79
3910.00,1.82
3909.00,1.85
3908.00,1.89
3907.00,1.92
3906.00,1.96
3905.00,2.00
3904.00,2.03
3903.00,2.07
3902.00,2.10
3901.00,2.14
3900.00,2.17
3899.00,2.21
3898.00,2.24
3897.00,2.28
3896.00,2.31
3895.00,2.36
3894.00,2.40
3893.00,2.45
3892.00,2.49
3891.00,2.54
3890.00,2.58
3889.00,2.63
3888.00,2.67
3887.00,2.72
3886.00,2.77
3885.00,2.82
3884.00,2.86
3883.00,2.91
3882.00,2.96
3881.00,3.01
3880.00,3.06
3879.00,3.11
3878.00,3.16
3877.00,3.21
3876.00,3.27
3875.00,3.33
3874.00,3.38
3873.00,3.44
3872.00,3.50
3871.00,3.56
3870.00,3.62
3869.00,3.67
3868.00,3.73
3867.00,3.78
3866.00,3.84
3865.00,3.90
3864.00,3.97
3863.00,4.02
3862.00,4.08
3861.00,4.14
3860.00,4.19
3859.00,4.25
3858.00,4.31
3857.00,4.37
3856.00,4.43
3855.00,4.49
3854.00,4.55
3853.00,4.60
3852.00,4.66
3851.00,4.71
3850.00,4.76
3849.00,4.81
3848.00,4.86
3847.00,4.91
3846.00,4.95
3845.00,5.00
3844.00,5.04
3843.00,5.08
3842.00,5.12
3841.00,5.15
3840.00,5.19
3839.00,5.22
3838.00,5.25
3837.00,5.27
3836.00,5.29
3835.00,5.31
3834.00,5.33
3833.00,5.35
3832.00,5.36
3831.00,5.37
3830.00,5.37
3829.00,5.37
3828.00,5.38
3827.00,5.37
3826.00,5.37
3825.00,5.35
3824.00,5.34
3823.00,5.33
3822.00,5.31
3821.00,5.30
3820.00,5.28
3819.00,5.26
3818.00,5.24
3817.00,5.22
3816.00,5.19
3815.00,5.17
3814.00,5.14
3813.00,5.12
3812.00,5.09
3811.00,5.06
3810.00,5.03
3809.00,4.99
3808.00,4.96
3807.00,4.92
3806.00,4.89
3805.00,4.86
3804.00,4.82
3803.00,4.79
3802.00,4.75
3801.00,4.71
3800.00,4.68
3799.00,4.64
3798.00,4.61
3797.00,4.57
3796.00,4.54
3795.00,4.50
3794.00,4.46
3793.00,4.42
3792.00,4.39
3791.00,4.35
3790.00,4.31
3789.00,4.27
3788.00,4.23
3787.00,4.20
3786.00,4.16
3785.00,4.13
3784.00,4.09
3783.00,4.06
3782.00,4.02
3781.00,3.99
3780.00,3.95
3779.00,3.91
3778.00,3.88
3777.00,3.85
3776.00,3.81
3775.00,3.78
3774.00,3.75
3773.00,3.71
3772.00,3.68
3771.00,3.64
3770.00,3.61
3769.00,3.58
3768.00,3.55
3767.00,3.52
3766.00,3.49
3765.00,3.46
3764.00,3.42
3763.00,3.39
3762.00,3.36
3761.00,3.33
3760.00,3.30
3759.00,3.27
3758.00,3.24
3757.00,3.21
3756.00,3.18
3755.00,3.15
3754.00,3.13
3753.00,3.10
3752.00,3.07
3751.00,3.04
3750.00,3.01
3749.00,2.99
3748.00,2.96
3747.00,2.93
3746.00,2.91
3745.00,2.88
3744.00,2.85
3743.00,2.82
3742.00,2.80
3741.00,2.77
3740.00,2.74
3739.00,2.71
3738.00,2.69
3737.00,2.66
3736.00,2.63
3735.00,2.60
3734.00,2.58
3733.00,2.55
3732.00,2.52
3731.00,2.50
3730.00,2.47
3729.00,2.45
3728.00,2.42
3727.00,2.39
3726.00,2.37
3725.00,2.34
3724.00,2.32
3723.00,2.29
3722.00,2.26
3721.00,2.24
3720.00,2.21
3719.00,2.19
3718.00,2.16
3717.00,2.14
3716.00,2.11
3715.00,2.09
3714.00,2.07
3713.00,2.04
3712.00,2.02
3711.00,2.00
3710.00,1.97
3709.00,1.95
3708.00,1.92
3707.00,1.90
3706.00,1.88
3705.00,1.86
3704.00,1.83
3703.00,1.81
3702.00,1.78
3701.00,1.76
3700.00,1.74
3699.00,1.71
3698.00,1.69
3697.00,1.67
3696.00,1.64
3695.00,1.62
3694.00,1.60
3693.00,1.57
3692.00,1.55
3691.00,1.53
3690.00,1.51
3689.00,1.49
3688.00,1.47
3687.00,1.45
3686.00,1.43
3685.00,1.41
3684.00,1.39
3683.00,1.37
3682.00,1.35
3681.00,1.33
3680.00,1.31
3679.00,1.29
3678.00,1.28
3677.00,1.26
3676.00,1.24
3675.00,1.22
3674.00,1.20
3673.00,1.19
3672.00,1.17
3671.00,1.15
3670.00,1.13
3669.00,1.12
3668.00,1.10
3667.00,1.08
3666.00,1.07
3665.00,1.05
3664.00,1.04
3663.00,1.02
3662.00,1.01
3661.00,0.99
3660.00,0.98
3659.00,0.96
3658.00,0.95
3657.00,0.93
3656.00,0.92
3655.00,0.90
3654.00,0.89
3653.00,0.87
3652.00,0.86
3651.00,0.85
3650.00,0.84
3649.00,0.83
3648.00,0.81
3647.00,0.80
3646.00,0.79
3645.00,0.78
3644.00,0.77
3643.00,0.76
3642.00,0.75
3641.00,0.74
3640.00,0.73
3639.00,0.72
3638.00,0.71
3637.00,0.70
3636.00,0.69
3635.00,0.68
3634.00,0.67
3633.00,0.66
3632.00,0.65
3631.00,0.64
3630.00,0.64
3629.00,0.63
3628.00,0.62
3627.00,0.61
3626.00,0.60
3625.00,0.60
3624.00,0.59
3623.00,0.58
3622.00,0.57
3621.00,0.57
3620.00,0.56
3619.00,0.55
3618.00,0.55
3617.00,0.54
3616.00,0.53
3615.00,0.53
3614.00,0.52
3613.00,0.52
3612.00,0.51
3611.00,0.51
3610.00,0.50
3609.00,0.50
3608.00,0.49
3607.00,0.49
3606.00,0.48
3605.00,0.48
3604.00,0.47
3603.00,0.47
3602.00,0.46
3601.00,0.46
3600.00,0.45
3599.00,0.45
3598.00,0.44
3597.00,0.44
3596.00,0.44
3595.00,0.43
3594.00,0.43
3593.00,0.43
3592.00,0.42
3591.00,0.42
3590.00,0.41
3589.00,0.41
3588.00,0.40
3587.00,0.40
3586.00,0.40
3585.00,0.39
3584.00,0.39
3583.00,0.39
3582.00,0.38
3581.00,0.38
3580.00,0.38
3579.00,0.38
3578.00,0.37
3577.00,0.37
3576.00,0.37
3575.00,0.37
3574.00,0.36
3573.00,0.36
3572.00,0.36
3571.00,0.35
3570.00,0.35
3569.00,0.35
3568.00,0.35
3567.00,0.34
3566.00,0.34
3565.00,0.34
3564.00,0.34
3563.00,0.34
3562.00,0.33
3561.00,0.33
3560.00,0.33
3559.00,0.33
3558.00,0.32
3557.00,0.32
3556.00,0.32
3555.00,0.32
3554.00,0.32
3553.00,0.32
3552.00,0.32
3551.00,0.31
3550.00,0.31
3549.00,0.31
3548.00,0.31
3547.00,0.31
3546.00,0.30
3545.00,0.30
3544.00,0.30
3543.00,0.30
3542.00,0.30
3541.00,0.30
3540.00,0.29
3539.00,0.29
3538.00,0.29
3537.00,0.29
3536.00,0.29
3535.00,0.29
3534.00,0.29
3533.00,0.29
3532.00,0.29
3531.00,0.28
3530.00,0.28
3529.00,0.28
3528.00,0.28
3527.00,0.28
3526.00,0.28
3525.00,0.28
3524.00,0.28
3523.00,0.28
3522.00,0.28
3521.00,0.28
3520.00,0.28
3519.00,0.27
3518.00,0.27
3517.00,0.27
3516.00,0.27
3515.00,0.27
3514.00,0.27
3513.00,0.27
3512.00,0.27
3511.00,0.27
3510.00,0.27
3509.00,0.27
3508.00,0.26
3507.00,0.26
3506.00,0.26
3505.00,0.26
3504.00,0.26
3503.00,0.26
3502.00,0.26
3501.00,0.26
3500.00,0.26
3499.00,0.26
3498.00,0.26
3497.00,0.26
3496.00,0.26
3495.00,0.26
3494.00,0.26
3493.00,0.26
3492.00,0.26
3491.00,0.26
3490.00,0.26
3489.00,0.26
3488.00,0.25
3487.00,0.25
3486.00,0.25
3485.00,0.26
3484.00,0.26
3483.00,0.26
3482.00,0.26
3481.00,0.25
3480.00,0.25
3479.00,0.25
3478.00,0.25
3477.00,0.25
3476.00,0.25
3475.00,0.25
3474.00,0.25
3473.00,0.25
3472.00,0.25
3471.00,0.25
3470.00,0.25
3469.00,0.25
3468.00,0.25
3467.00,0.25
3466.00,0.25
3465.00,0.25
3464.00,0.25
3463.00,0.25
3462.00,0.25
3461.00,0.25
3460.00,0.25
3459.00,0.25
3458.00,0.25
3457.00,0.25
3456.00,0.25
3455.00,0.25
3454.00,0.25
3453.00,0.25
3452.00,0.25
3451.00,0.25
3450.00,0.25
3449.00,0.25
3448.00,0.25
3447.00,0.25
3446.00,0.25
3445.00,0.25
3444.00,0.25
3443.00,0.25
3442.00,0.26
3441.00,0.26
3440.00,0.26
3439.00,0.26
3438.00,0.26
3437.00,0.26
3436.00,0.26
3435.00,0.26
3434.00,0.26
3433.00,0.26
3432.00,0.26
3431.00,0.26
3430.00,0.27
3429.00,0.27
3428.00,0.27
3427.00,0.27
3426.00,0.27
3425.00,0.27
3424.00,0.27
3423.00,0.27
3422.00,0.27
3421.00,0.27
3420.00,0.27
3419.00,0.27
3418.00,0.27
3417.00,0.27
3416.00,0.27
3415.00,0.27
3414.00,0.27
3413.00,0.27
3412.00,0.27
3411.00,0.27
3410.00,0.27
3409.00,0.27
3408.00,0.27
3407.00,0.27
3406.00,0.28
3405.00,0.28
3404.00,0.28
3403.00,0.28
3402.00,0.28
3401.00,0.28
3400.00,0.28
3399.00,0.28
3398.00,0.28
3397.00,0.28
3396.00,0.29
3395.00,0.29
3394.00,0.29
3393.00,0.29
3392.00,0.29
3391.00,0.29
3390.00,0.29
3389.00,0.30
3388.00,0.30
3387.00,0.30
3386.00,0.30
3385.00,0.30
3384.00,0.31
3383.00,0.31
3382.00,0.31
3381.00,0.31
3380.00,0.31
3379.00,0.32
3378.00,0.32
3377.00,0.32
3376.00,0.32
3375.00,0.32
3374.00,0.32
3373.00,0.33
3372.00,0.33
3371.00,0.33
3370.00,0.33
3369.00,0.33
3368.00,0.34
3367.00,0.34
3366.00,0.34
3365.00,0.35
3364.00,0.35
3363.00,0.35
3362.00,0.35
3361.00,0.35
3360.00,0.36
3359.00,0.36
3358.00,0.36
3357.00,0.36
3356.00,0.37
3355.00,0.37
3354.00,0.37
3353.00,0.38
3352.00,0.38
3351.00,0.38
3350.00,0.39
3349.00,0.39
3348.00,0.39
3347.00,0.40
3346.00,0.40
3345.00,0.41
3344.00,0.41
3343.00,0.41
3342.00,0.41
3341.00,0.42
3340.00,0.42
3339.00,0.43
3338.00,0.43
3337.00,0.43
3336.00,0.44
3335.00,0.45
3334.00,0.45
3333.00,0.45
3332.00,0.46
3331.00,0.46
3330.00,0.47
3329.00,0.47
3328.00,0.48
3327.00,0.48
3326.00,0.49
3325.00,0.49
3324.00,0.50
3323.00,0.51
3322.00,0.52
3321.00,0.52
3320.00,0.53
3319.00,0.53
3318.00,0.54
3317.00,0.55
3316.00,0.55
3315.00,0.56
3314.00,0.57
3313.00,0.58
3312.00,0.58
3311.00,0.59
3310.00,0.60
3309.00,0.61
3308.00,0.62
3307.00,0.63
3306.00,0.64
3305.00,0.64
3304.00,0.65
3303.00,0.66
3302.00,0.67
3301.00,0.68
3300.00,0.69
3299.00,0.70
3298.00,0.71
3297.00,0.73
3296.00,0.74
3295.00,0.75
3294.00,0.76
3293.00,0.77
3292.00,0.78
3291.00,0.80
3290.00,0.81
3289.00,0.82
3288.00,0.84
3287.00,0.85
3286.00,0.87
3285.00,0.88
3284.00,0.90
3283.00,0.91
3282.00,0.93
3281.00,0.95
3280.00,0.96
3279.00,0.98
3278.00,1.00
3277.00,1.02
3276.00,1.04
3275.00,1.06
3274.00,1.08
3273.00,1.10
3272.00,1.12
3271.00,1.14
3270.00,1.16
3269.00,1.19
3268.00,1.21
3267.00,1.23
3266.00,1.25
3265.00,1.28
3264.00,1.30
3263.00,1.32
3262.00,1.35
3261.00,1.38
3260.00,1.40
3259.00,1.43
3258.00,1.46
3257.00,1.49
3256.00,1.52
3255.00,1.55
3254.00,1.57
3253.00,1.60
3252.00,1.63
3251.00,1.67
3250.00,1.70
3249.00,1.73
3248.00,1.76
3247.00,1.80
3246.00,1.83
3245.00,1.86
3244.00,1.90
3243.00,1.93
3242.00,1.97
3241.00,2.01
3240.00,2.04
3239.00,2.08
3238.00,2.12
3237.00,2.15
3236.00,2.19
3235.00,2.23
3234.00,2.27
3233.00,2.30
3232.00,2.34
3231.00,2.38
3230.00,2.42
3229.00,2.46
3228.00,2.50
3227.00,2.54
3226.00,2.58
3225.00,2.61
3224.00,2.65
3223.00,2.69
3222.00,2.72
3221.00,2.76
3220.00,2.79
3219.00,2.83
3218.00,2.86
3217.00,2.89
3216.00,2.92
3215.00,2.95
3214.00,2.98
3213.00,3.00
3212.00,3.03
3211.00,3.05
3210.00,3.07
3209.00,3.09
3208.00,3.11
3207.00,3.13
3206.00,3.14
3205.00,3.16
3204.00,3.17
3203.00,3.18
3202.00,3.18
3201.00,3.19
3200.00,3.19
3199.00,3.19
3198.00,3.20
3197.00,3.19
3196.00,3.19
3195.00,3.19
3194.00,3.18
3193.00,3.17
3192.00,3.16
3191.00,3.15
3190.00,3.14
3189.00,3.12
3188.00,3.11
3187.00,3.09
3186.00,3.08
3185.00,3.06
3184.00,3.04
3183.00,3.02
3182.00,3.00
3181.00,2.98
3180.00,2.96
3179.00,2.93
3178.00,2.91
3177.00,2.89
3176.00,2.87
3175.00,2.84
3174.00,2.82
3173.00,2.80
3172.00,2.77
3171.00,2.75
3170.00,2.72
3169.00,2.70
3168.00,2.68
3167.00,2.65
3166.00,2.62
3165.00,2.60
3164.00,2.57
3163.00,2.55
3162.00,2.53
3161.00,2.50
3160.00,2.48
3159.00,2.45
3158.00,2.43
3157.00,2.40
3156.00,2.38
3155.00,2.35
3154.00,2.33
3153.00,2.30
3152.00,2.28
3151.00,2.25
3150.00,2.23
3149.00,2.21
3148.00,2.18
3147.00,2.16
3146.00,2.14
3145.00,2.11
3144.00,2.09
3143.00,2.07
3142.00,2.05
3141.00,2.02
3140.00,2.00
3139.00,1.98
3138.00,1.95
3137.00,1.93
3136.00,1.91
3135.00,1.89
3134.00,1.87
3133.00,1.84
3132.00,1.82
3131.00,1.80
3130.00,1.78
3129.00,1.76
3128.00,1.74
3127.00,1.72
3126.00,1.70
3125.00,1.68
3124.00,1.66
3123.00,1.64
3122.00,1.62
3121.00,1.60
3120.00,1.58
3119.00,1.56
3118.00,1.54
3117.00,1.52
3116.00,1.50
3115.00,1.48
3114.00,1.46
3113.00,1.44
3112.00,1.42
3111.00,1.40
3110.00,1.38
3109.00,1.36
3108.00,1.34
3107.00,1.32
3106.00,1.30
3105.00,1.28
3104.00,1.27
3103.00,1.25
3102.00,1.23
3101.00,1.21
3100.00,1.19
3099.00,1.18
3098.00,1.16
3097.00,1.14
3096.00,1.12
3095.00,1.11
3094.00,1.09
3093.00,1.07
3092.00,1.06
3091.00,1.04
3090.00,1.02
3089.00,1.01
3088.00,0.99
3087.00,0.97
3086.00,0.96
3085.00,0.94
3084.00,0.92
3083.00,0.91
3082.00,0.89
3081.00,0.88
3080.00,0.86
3079.00,0.85
3078.00,0.83
3077.00,0.81
3076.00,0.80
3075.00,0.79
3074.00,0.77
3073.00,0.76
3072.00,0.74
3071.00,0.73
3070.00,0.71
3069.00,0.70
3068.00,0.69
3067.00,0.67
3066.00,0.66
3065.00,0.65
3064.00,0.64
3063.00,0.62
3062.00,0.61
3061.00,0.60
3060.00,0.58
3059.00,0.57
3058.00,0.56
3057.00,0.55
3056.00,0.54
3055.00,0.53
3054.00,0.52
3053.00,0.51
3052.00,0.50
3051.00,0.49
3050.00,0.48
3049.00,0.47
3048.00,0.46
3047.00,0.45
3046.00,0.44
3045.00,0.43
3044.00,0.43
3043.00,0.42
3042.00,0.41
3041.00,0.40
3040.00,0.40
3039.00,0.39
3038.00,0.38
3037.00,0.37
3036.00,0.36
3035.00,0.36
3034.00,0.35
3033.00,0.35
3032.00,0.34
3031.00,0.33
3030.00,0.33
3029.00,0.32
3028.00,0.32
3027.00,0.31
3026.00,0.31
3025.00,0.30
3024.00,0.30
3023.00,0.29
3022.00,0.29
3021.00,0.28
3020.00,0.28
3019.00,0.27
3018.00,0.27
3017.00,0.26
3016.00,0.26
3015.00,0.25
3014.00,0.25
3013.00,0.25
3012.00,0.24
3011.00,0.24
3010.00,0.24
3009.00,0.23
3008.00,0.23
3007.00,0.23
3006.00,0.23
3005.00,0.22
3004.00,0.22
3003.00,0.21
3002.00,0.21
3001.00,0.21
3000.00,0.21
2999.00,0.20
2998.00,0.20
2997.00,0.20
2996.00,0.19
2995.00,0.19
2994.00,0.19
2993.00,0.19
2992.00,0.18
2991.00,0.18
2990.00,0.18
2989.00,0.18
2988.00,0.17
2987.00,0.17
2986.00,0.17
2985.00,0.17
2984.00,0.16
2983.00,0.16
2982.00,0.16
2981.00,0.16
2980.00,0.15
2979.00,0.15
2978.00,0.15
2977.00,0.15
2976.00,0.15
2975.00,0.14
2974.00,0.14
2973.00,0.14
2972.00,0.14
2971.00,0.13
2970.00,0.13
2969.00,0.13
2968.00,0.12
2967.00,0.12
2966.00,0.12
2965.00,0.11
2964.00,0.11
2963.00,0.11
2962.00,0.11
2961.00,0.10
2960.00,0.10
2959.00,0.10
2958.00,0.10
2957.00,0.09
2956.00,0.09
2955.00,0.09
2954.00,0.09
2953.00,0.09
2952.00,0.08
2951.00,0.08
2950.00,0.08
2949.00,0.08
2948.00,0.08
2947.00,0.07
2946.00,0.07
2945.00,0.07
2944.00,0.07
2943.00,0.06
2942.00,0.06
2941.00,0.06
2940.00,0.06
2939.00,0.06
2938.00,0.06
2937.00,0.06
2936.00,0.06
2935.00,0.06
2934.00,0.07
2933.00,0.07
2932.00,0.08
2931.00,0.08
2930.00,0.08
2929.00,0.09
2928.00,0.09
2927.00,0.10
2926.00,0.10
2925.00,0.11
2924.00,0.11
2923.00,0.12
2922.00,0.13
2921.00,0.13
2920.00,0.14
2919.00,0.14
2918.00,0.15
2917.00,0.15
2916.00,0.15
2915.00,0.16
2914.00,0.16
2913.00,0.16
2912.00,0.16
2911.00,0.16
2910.00,0.16
2909.00,0.16
2908.00,0.16
2907.00,0.16
2906.00,0.16
2905.00,0.16
2904.00,0.16
2903.00,0.16
2902.00,0.16
2901.00,0.16
2900.00,0.16
2899.00,0.16
2898.00,0.15
2897.00,0.15
2896.00,0.15
2895.00,0.15
2894.00,0.15
2893.00,0.15
2892.00,0.15
2891.00,0.15
2890.00,0.15
2889.00,0.15
2888.00,0.14
2887.00,0.14
2886.00,0.14
2885.00,0.14
2884.00,0.13
2883.00,0.13
2882.00,0.13
2881.00,0.13
2880.00,0.13
2879.00,0.13
2878.00,0.13
2877.00,0.13
2876.00,0.12
2875.00,0.12
2874.00,0.12
2873.00,0.12
2872.00,0.11
2871.00,0.11
2870.00,0.11
2869.00,0.11
2868.00,0.10
2867.00,0.10
2866.00,0.10
2865.00,0.10
2864.00,0.10
2863.00,0.10
2862.00,0.10
2861.00,0.10
2860.00,0.10
2859.00,0.11
2858.00,0.11
2857.00,0.12
2856.00,0.12
2855.00,0.13
2854.00,0.13
2853.00,0.13
2852.00,0.14
2851.00,0.14
2850.00,0.14
2849.00,0.14
2848.00,0.14
2847.00,0.14
2846.00,0.15
2845.00,0.14
2844.00,0.14
2843.00,0.14
2842.00,0.14
2841.00,0.14
2840.00,0.14
2839.00,0.14
2838.00,0.14
2837.00,0.14
2836.00,0.14
2835.00,0.13
2834.00,0.13
2833.00,0.13
2832.00,0.13
2831.00,0.13
2830.00,0.13
2829.00,0.13
2828.00,0.13
2827.00,0.13
2826.00,0.13
2825.00,0.13
2824.00,0.13
2823.00,0.13
2822.00,0.13
2821.00,0.13
2820.00,0.13
2819.00,0.13
2818.00,0.13
2817.00,0.13
2816.00,0.13
2815.00,0.13
2814.00,0.13
2813.00,0.13
2812.00,0.13
2811.00,0.13
2810.00,0.13
2809.00,0.13
2808.00,0.13
2807.00,0.13
2806.00,0.13
2805.00,0.13
2804.00,0.13
2803.00,0.13
2802.00,0.12
2801.00,0.12
2800.00,0.12
2799.00,0.13
2798.00,0.13
2797.00,0.13
2796.00,0.13
2795.00,0.13
2794.00,0.13
2793.00,0.12
2792.00,0.12
2791.00,0.12
2790.00,0.12
2789.00,0.12
2788.00,0.12
2787.00,0.13
2786.00,0.13
2785.00,0.13
2784.00,0.13
2783.00,0.13
2782.00,0.12
2781.00,0.12
2780.00,0.13
2779.00,0.13
2778.00,0.13
2777.00,0.13
2776.00,0.13
2775.00,0.13
2774.00,0.13
2773.00,0.13
2772.00,0.13
2771.00,0.13
2770.00,0.13
2769.00,0.13
2768.00,0.13
2767.00,0.13
2766.00,0.13
2765.00,0.13
2764.00,0.13
2763.00,0.13
2762.00,0.13
2761.00,0.13
2760.00,0.13
2759.00,0.13
2758.00,0.13
2757.00,0.13
2756.00,0.13
2755.00,0.13
2754.00,0.13
2753.00,0.13
2752.00,0.14
2751.00,0.14
2750.00,0.14
2749.00,0.14
2748.00,0.14
2747.00,0.14
2746.00,0.14
2745.00,0.14
2744.00,0.14
2743.00,0.14
2742.00,0.14
2741.00,0.14
2740.00,0.14
2739.00,0.14
2738.00,0.14
2737.00,0.14
2736.00,0.14
2735.00,0.14
2734.00,0.14
2733.00,0.15
2732.00,0.15
2731.00,0.15
2730.00,0.15
2729.00,0.15
2728.00,0.15
2727.00,0.15
2726.00,0.15
2725.00,0.15
2724.00,0.15
2723.00,0.15
2722.00,0.16
2721.00,0.16
2720.00,0.16
2719.00,0.16
2718.00,0.16
2717.00,0.16
2716.00,0.16
2715.00,0.16
2714.00,0.16
2713.00,0.16
2712.00,0.16
2711.00,0.17
2710.00,0.17
2709.00,0.17
2708.00,0.17
2707.00,0.17
2706.00,0.17
2705.00,0.18
2704.00,0.18
2703.00,0.18
2702.00,0.18
2701.00,0.18
2700.00,0.18
2699.00,0.18
2698.00,0.19
2697.00,0.19
2696.00,0.19
2695.00,0.19
2694.00,0.19
2693.00,0.19
2692.00,0.19
2691.00,0.20
2690.00,0.20
2689.00,0.20
2688.00,0.20
2687.00,0.20
2686.00,0.21
2685.00,0.21
2684.00,0.21
2683.00,0.21
2682.00,0.21
2681.00,0.21
2680.00,0.22
2679.00,0.22
2678.00,0.22
2677.00,0.22
2676.00,0.22
2675.00,0.22
2674.00,0.23
2673.00,0.23
2672.00,0.23
2671.00,0.23
2670.00,0.23
2669.00,0.24
2668.00,0.24
2667.00,0.24
2666.00,0.24
2665.00,0.25
2664.00,0.25
2663.00,0.25
2662.00,0.25
2661.00,0.26
2660.00,0.26
2659.00,0.26
2658.00,0.27
2657.00,0.27
2656.00,0.27
2655.00,0.28
2654.00,0.28
2653.00,0.29
2652.00,0.29
2651.00,0.30
2650.00,0.30
2649.00,0.30
2648.00,0.31
2647.00,0.31
2646.00,0.31
2645.00,0.32
2644.00,0.33
2643.00,0.33
2642.00,0.34
2641.00,0.34
2640.00,0.35
2639.00,0.35
2638.00,0.36
2637.00,0.37
2636.00,0.37
2635.00,0.38
2634.00,0.39
2633.00,0.39
2632.00,0.40
2631.00,0.41
2630.00,0.42
2629.00,0.43
2628.00,0.43
2627.00,0.44
2626.00,0.45
2625.00,0.46
2624.00,0.47
2623.00,0.48
2622.00,0.49
2621.00,0.50
2620.00,0.51
2619.00,0.52
2618.00,0.53
2617.00,0.54
2616.00,0.55
2615.00,0.56
2614.00,0.58
2613.00,0.59
2612.00,0.60
2611.00,0.61
2610.00,0.62
2609.00,0.64
2608.00,0.65
2607.00,0.67
2606.00,0.68
2605.00,0.70
2604.00,0.72
2603.00,0.73
2602.00,0.75
2601.00,0.77
2600.00,0.79
2599.00,0.81
2598.00,0.83
2597.00,0.85
2596.00,0.87
2595.00,0.89
2594.00,0.91
2593.00,0.94
2592.00,0.96
2591.00,0.98
2590.00,1.01
2589.00,1.03
2588.00,1.06
2587.00,1.08
2586.00,1.11
2585.00,1.13
2584.00,1.16
2583.00,1.19
2582.00,1.22
2581.00,1.25
2580.00,1.27
2579.00,1.30
2578.00,1.33
2577.00,1.36
2576.00,1.39
2575.00,1.42
2574.00,1.45
2573.00,1.48
2572.00,1.51
2571.00,1.54
2570.00,1.57
2569.00,1.60
2568.00,1.63
2567.00,1.66
2566.00,1.69
2565.00,1.72
2564.00,1.75
2563.00,1.78
2562.00,1.81
2561.00,1.84
2560.00,1.87
2559.00,1.90
2558.00,1.93
2557.00,1.95
2556.00,1.98
2555.00,2.00
2554.00,2.02
2553.00,2.04
2552.00,2.06
2551.00,2.07
2550.00,2.09
2549.00,2.10
2548.00,2.11
2547.00,2.12
2546.00,2.12
2545.00,2.12
2544.00,2.12
2543.00,2.12
2542.00,2.12
2541.00,2.12
2540.00,2.11
2539.00,2.11
2538.00,2.10
2537.00,2.10
2536.00,2.09
2535.00,2.08
2534.00,2.06
2533.00,2.05
2532.00,2.04
2531.00,2.02
2530.00,2.01
2529.00,2.00
2528.00,1.98
2527.00,1.97
2526.00,1.95
2525.00,1.94
2524.00,1.92
2523.00,1.90
2522.00,1.89
2521.00,1.87
2520.00,1.85
2519.00,1.84
2518.00,1.82
2517.00,1.81
2516.00,1.79
2515.00,1.77
2514.00,1.75
2513.00,1.74
2512.00,1.72
2511.00,1.70
2510.00,1.68
2509.00,1.66
2508.00,1.64
2507.00,1.62
2506.00,1.60
2505.00,1.59
2504.00,1.57
2503.00,1.55
2502.00,1.53
2501.00,1.51
2500.00,1.49
2499.00,1.47
2498.00,1.45
2497.00,1.43
2496.00,1.41
2495.00,1.40
2494.00,1.38
2493.00,1.36
2492.00,1.34
2491.00,1.32
2490.00,1.31
2489.00,1.29
2488.00,1.27
2487.00,1.25
2486.00,1.24
2485.00,1.22
2484.00,1.20
2483.00,1.18
2482.00,1.16
2481.00,1.15
2480.00,1.13
2479.00,1.11
2478.00,1.10
2477.00,1.08
2476.00,1.06
2475.00,1.05
2474.00,1.03
2473.00,1.01
2472.00,1.00
2471.00,0.98
2470.00,0.97
2469.00,0.95
2468.00,0.94
2467.00,0.92
2466.00,0.91
2465.00,0.89
2464.00,0.88
2463.00,0.86
2462.00,0.85
2461.00,0.84
2460.00,0.82
2459.00,0.81
2458.00,0.80
2457.00,0.78
2456.00,0.77
2455.00,0.76
2454.00,0.74
2453.00,0.73
2452.00,0.72
2451.00,0.71
2450.00,0.70
2449.00,0.68
2448.00,0.67
2447.00,0.66
2446.00,0.65
2445.00,0.64
2444.00,0.62
2443.00,0.61
2442.00,0.60
2441.00,0.59
2440.00,0.58
2439.00,0.57
2438.00,0.56
2437.00,0.55
2436.00,0.54
2435.00,0.53
2434.00,0.52
2433.00,0.51
2432.00,0.49
2431.00,0.48
2430.00,0.47
2429.00,0.46
2428.00,0.45
2427.00,0.45
2426.00,0.44
2425.00,0.43
2424.00,0.42
2423.00,0.41
2422.00,0.40
2421.00,0.39
2420.00,0.39
2419.00,0.38
2418.00,0.37
2417.00,0.36
2416.00,0.36
2415.00,0.35
2414.00,0.34
2413.00,0.33
2412.00,0.33
2411.00,0.32
2410.00,0.31
2409.00,0.31
2408.00,0.30
2407.00,0.30
2406.00,0.29
2405.00,0.28
2404.00,0.28
2403.00,0.27
2402.00,0.27
2401.00,0.26
2400.00,0.26
2399.00,0.25
2398.00,0.25
2397.00,0.24
2396.00,0.24
2395.00,0.24
2394.00,0.23
2393.00,0.23
2392.00,0.22
2391.00,0.22
2390.00,0.22
2389.00,0.21
2388.00,0.21
2387.00,0.21
2386.00,0.20
2385.00,0.20
2384.00,0.20
2383.00,0.19
2382.00,0.19
2381.00,0.19
2380.00,0.18
2379.00,0.18
2378.00,0.18
2377.00,0.18
2376.00,0.18
2375.00,0.17
2374.00,0.17
2373.00,0.17
2372.00,0.16
2371.00,0.16
2370.00,0.16
2369.00,0.16
2368.00,0.16
2367.00,0.15
2366.00,0.15
2365.00,0.15
2364.00,0.15
2363.00,0.15
2362.00,0.15
2361.00,0.14
2360.00,0.14
2359.00,0.14
2358.00,0.14
2357.00,0.13
2356.00,0.13
2355.00,0.13
2354.00,0.13
2353.00,0.13
2352.00,0.13
2351.00,0.13
2350.00,0.12
2349.00,0.12
2348.00,0.12
2347.00,0.12
2346.00,0.12
2345.00,0.12
2344.00,0.12
2343.00,0.12
2342.00,0.12
2341.00,0.11
2340.00,0.11
2339.00,0.11
2338.00,0.11
2337.00,0.11
2336.00,0.11
2335.00,0.11
2334.00,0.11
2333.00,0.11
2332.00,0.11
2331.00,0.11
2330.00,0.10
2329.00,0.10
2328.00,0.10
2327.00,0.10
2326.00,0.10
2325.00,0.10
2324.00,0.10
2323.00,0.10
2322.00,0.10
2321.00,0.10
2320.00,0.10
2319.00,0.10
2318.00,0.09
2317.00,0.09
2316.00,0.09
2315.00,0.09
2314.00,0.09
2313.00,0.09
2312.00,0.09
2311.00,0.09
2310.00,0.09
2309.00,0.09
2308.00,0.09
2307.00,0.09
2306.00,0.09
2305.00,0.09
2304.00,0.09
2303.00,0.09
2302.00,0.09
2301.00,0.09
2300.00,0.08
2299.00,0.08
2298.00,0.08
2297.00,0.08
2296.00,0.08
2295.00,0.08
2294.00,0.08
2293.00,0.08
2292.00,0.08
2291.00,0.08
2290.00,0.08
2289.00,0.08
2288.00,0.08
2287.00,0.08
2286.00,0.08
2285.00,0.08
2284.00,0.07
2283.00,0.07
2282.00,0.07
2281.00,0.07
2280.00,0.07
2279.00,0.07
2278.00,0.07
2277.00,0.07
2276.00,0.07
2275.00,0.07
2274.00,0.07
2273.00,0.07
2272.00,0.07
2271.00,0.07
2270.00,0.07
2269.00,0.07
2268.00,0.07
2267.00,0.07
2266.00,0.07
2265.00,0.07
2264.00,0.07
2263.00,0.07
2262.00,0.07
2261.00,0.07
2260.00,0.07
2259.00,0.07
2258.00,0.07
2257.00,0.07
2256.00,0.07
2255.00,0.07
2254.00,0.07
2253.00,0.07
2252.00,0.07
2251.00,0.07
2250.00,0.07
2249.00,0.07
2248.00,0.07
2247.00,0.07
2246.00,0.07
2245.00,0.07
2244.00,0.07
2243.00,0.06
2242.00,0.07
2241.00,0.07
2240.00,0.07
2239.00,0.07
2238.00,0.07
2237.00,0.07
2236.00,0.07
2235.00,0.07
2234.00,0.07
2233.00,0.06
2232.00,0.06
2231.00,0.06
2230.00,0.06
2229.00,0.06
2228.00,0.06
2227.00,0.06
2226.00,0.06
2225.00,0.06
2224.00,0.06
2223.00,0.06
2222.00,0.06
2221.00,0.06
2220.00,0.06
2219.00,0.06
2218.00,0.06
2217.00,0.06
2216.00,0.06
2215.00,0.06
2214.00,0.06
2213.00,0.06
2212.00,0.06
2211.00,0.06
2210.00,0.06
2209.00,0.06
2208.00,0.06
2207.00,0.06
2206.00,0.06
2205.00,0.06
2204.00,0.06
2203.00,0.06
2202.00,0.06
2201.00,0.06
2200.00,0.06
2199.00,0.06
2198.00,0.06
2197.00,0.06
2196.00,0.06
2195.00,0.06
2194.00,0.06
2193.00,0.06
2192.00,0.06
2191.00,0.06
2190.00,0.06
2189.00,0.06
2188.00,0.06
2187.00,0.06
2186.00,0.06
2185.00,0.06
2184.00,0.06
2183.00,0.06
2182.00,0.06
2181.00,0.06
2180.00,0.06
2179.00,0.06
2178.00,0.06
2177.00,0.06
2176.00,0.06
2175.00,0.06
2174.00,0.06
2173.00,0.06
2172.00,0.06
2171.00,0.06
2170.00,0.06
2169.00,0.06
2168.00,0.06
2167.00,0.06
2166.00,0.06
2165.00,0.06
2164.00,0.06
2163.00,0.06
2162.00,0.06
2161.00,0.06
2160.00,0.06
2159.00,0.06
2158.00,0.06
2157.00,0.06
2156.00,0.06
2155.00,0.06
2154.00,0.07
2153.00,0.07
2152.00,0.07
2151.00,0.07
2150.00,0.06
2149.00,0.06
2148.00,0.06
2147.00,0.06
2146.00,0.06
2145.00,0.06
2144.00,0.06
2143.00,0.06
2142.00,0.06
2141.00,0.06
2140.00,0.07
2139.00,0.07
2138.00,0.07
2137.00,0.07
2136.00,0.07
2135.00,0.06
2134.00,0.06
2133.00,0.07
2132.00,0.07
2131.00,0.07
2130.00,0.07
2129.00,0.07
2128.00,0.07
2127.00,0.07
2126.00,0.07
2125.00,0.07
2124.00,0.07
2123.00,0.07
2122.00,0.07
2121.00,0.07
2120.00,0.07
2119.00,0.07
2118.00,0.07
2117.00,0.07
2116.00,0.07
2115.00,0.07
2114.00,0.07
2113.00,0.07
2112.00,0.07
2111.00,0.07
2110.00,0.07
2109.00,0.07
2108.00,0.08
2107.00,0.08
2106.00,0.07
2105.00,0.07
2104.00,0.07
2103.00,0.07
2102.00,0.08
2101.00,0.08
2100.00,0.08
2099.00,0.08
2098.00,0.08
2097.00,0.08
2096.00,0.08
2095.00,0.08
2094.00,0.08
2093.00,0.08
2092.00,0.08
2091.00,0.08
2090.00,0.08
2089.00,0.08
2088.00,0.08
2087.00,0.08
2086.00,0.09
2085.00,0.09
2084.00,0.09
2083.00,0.09
2082.00,0.09
2081.00,0.09
2080.00,0.09
2079.00,0.09
2078.00,0.09
2077.00,0.09
2076.00,0.09
2075.00,0.09
2074.00,0.09
2073.00,0.10
2072.00,0.10
2071.00,0.10
2070.00,0.10
2069.00,0.10
2068.00,0.10
2067.00,0.10
2066.00,0.10
2065.00,0.10
2064.00,0.10
2063.00,0.10
2062.00,0.10
2061.00,0.10
2060.00,0.10
2059.00,0.10
2058.00,0.11
2057.00,0.11
2056.00,0.11
2055.00,0.11
2054.00,0.11
2053.00,0.11
2052.00,0.11
2051.00,0.12
2050.00,0.12
2049.00,0.12
2048.00,0.12
2047.00,0.12
2046.00,0.12
2045.00,0.12
2044.00,0.13
2043.00,0.13
2042.00,0.13
2041.00,0.13
2040.00,0.13
2039.00,0.13
2038.00,0.14
2037.00,0.14
2036.00,0.14
2035.00,0.14
2034.00,0.14
2033.00,0.15
2032.00,0.15
2031.00,0.15
2030.00,0.15
2029.00,0.16
2028.00,0.16
2027.00,0.16
2026.00,0.16
2025.00,0.17
2024.00,0.17
2023.00,0.17
2022.00,0.17
2021.00,0.18
2020.00,0.18
2019.00,0.18
2018.00,0.19
2017.00,0.19
2016.00,0.19
2015.00,0.20
2014.00,0.20
2013.00,0.20
2012.00,0.21
2011.00,0.21
2010.00,0.22
2009.00,0.22
2008.00,0.22
2007.00,0.23
2006.00,0.23
2005.00,0.24
2004.00,0.24
2003.00,0.25
2002.00,0.25
2001.00,0.26
2000.00,0.27
1999.00,0.27
1998.00,0.28
1997.00,0.29
1996.00,0.29
1995.00,0.30
1994.00,0.31
1993.00,0.31
1992.00,0.32
1991.00,0.33
1990.00,0.34
1989.00,0.35
1988.00,0.35
1987.00,0.36
1986.00,0.37
1985.00,0.38
1984.00,0.39
1983.00,0.40
1982.00,0.41
1981.00,0.43
1980.00,0.44
1979.00,0.45
1978.00,0.46
1977.00,0.47
1976.00,0.48
1975.00,0.50
1974.00,0.51
1973.00,0.52
1972.00,0.53
1971.00,0.55
1970.00,0.56
1969.00,0.58
1968.00,0.59
1967.00,0.61
1966.00,0.63
1965.00,0.65
1964.00,0.67
1963.00,0.69
1962.00,0.70
1961.00,0.72
1960.00,0.74
1959.00,0.76
1958.00,0.79
1957.00,0.81
1956.00,0.83
1955.00,0.85
1954.00,0.87
1953.00,0.89
1952.00,0.91
1951.00,0.93
1950.00,0.95
1949.00,0.96
1948.00,0.98
1947.00,1.00
1946.00,1.02
1945.00,1.04
1944.00,1.06
1943.00,1.07
1942.00,1.09
1941.00,1.11
1940.00,1.12
1939.00,1.14
1938.00,1.15
1937.00,1.17
1936.00,1.19
1935.00,1.20
1934.00,1.21
1933.00,1.22
1932.00,1.23
1931.00,1.23
1930.00,1.23
1929.00,1.23
1928.00,1.23
1927.00,1.23
1926.00,1.23
1925.00,1.23
1924.00,1.22
1923.00,1.21
1922.00,1.21
1921.00,1.20
1920.00,1.19
1919.00,1.17
1918.00,1.16
1917.00,1.14
1916.00,1.13
1915.00,1.12
1914.00,1.11
1913.00,1.10
1912.00,1.09
1911.00,1.07
1910.00,1.06
1909.00,1.05
1908.00,1.04
1907.00,1.02
1906.00,1.01
1905.00,0.99
1904.00,0.97
1903.00,0.96
1902.00,0.95
1901.00,0.93
1900.00,0.92
1899.00,0.90
1898.00,0.88
1897.00,0.87
1896.00,0.85
1895.00,0.84
1894.00,0.83
1893.00,0.81
1892.00,0.79
1891.00,0.78
1890.00,0.76
1889.00,0.74
1888.00,0.73
1887.00,0.72
1886.00,0.70
1885.00,0.68
1884.00,0.67
1883.00,0.65
1882.00,0.64
1881.00,0.62
1880.00,0.61
1879.00,0.60
1878.00,0.58
1877.00,0.57
1876.00,0.55
1875.00,0.54
1874.00,0.53
1873.00,0.52
1872.00,0.51
1871.00,0.49
1870.00,0.48
1869.00,0.48
1868.00,0.47
1867.00,0.46
1866.00,0.45
1865.00,0.44
1864.00,0.43
1863.00,0.42
1862.00,0.41
1861.00,0.40
1860.00,0.39
1859.00,0.38
1858.00,0.37
1857.00,0.36
1856.00,0.35
1855.00,0.34
1854.00,0.33
1853.00,0.32
1852.00,0.31
1851.00,0.30
1850.00,0.30
1849.00,0.29
1848.00,0.28
1847.00,0.27
1846.00,0.26
1845.00,0.25
1844.00,0.24
1843.00,0.23
1842.00,0.23
1841.00,0.22
1840.00,0.21
1839.00,0.21
1838.00,0.20
1837.00,0.20
1836.00,0.19
1835.00,0.19
1834.00,0.18
1833.00,0.17
1832.00,0.17
1831.00,0.16
1830.00,0.16
1829.00,0.16
1828.00,0.15
1827.00,0.15
1826.00,0.14
1825.00,0.14
1824.00,0.13
1823.00,0.13
1822.00,0.13
1821.00,0.12
1820.00,0.12
1819.00,0.12
1818.00,0.12
1817.00,0.11
1816.00,0.11
1815.00,0.11
1814.00,0.10
1813.00,0.10
1812.00,0.10
1811.00,0.10
1810.00,0.09
1809.00,0.09
1808.00,0.09
1807.00,0.09
1806.00,0.09
1805.00,0.09
1804.00,0.09
1803.00,0.09
1802.00,0.09
1801.00,0.08
1800.00,0.08
1799.00,0.08
1798.00,0.08
1797.00,0.08
1796.00,0.08
1795.00,0.08
1794.00,0.07
1793.00,0.07
1792.00,0.07
1791.00,0.07
1790.00,0.07
1789.00,0.07
1788.00,0.06
1787.00,0.06
1786.00,0.06
1785.00,0.06
1784.00,0.06
1783.00,0.06
1782.00,0.06
1781.00,0.06
1780.00,0.06
1779.00,0.06
1778.00,0.06
1777.00,0.06
1776.00,0.05
1775.00,0.05
1774.00,0.05
1773.00,0.05
1772.00,0.05
1771.00,0.05
1770.00,0.04
1769.00,0.04
1768.00,0.04
1767.00,0.04
1766.00,0.04
1765.00,0.04
1764.00,0.04
1763.00,0.04
1762.00,0.04
1761.00,0.04
1760.00,0.04
1759.00,0.04
1758.00,0.04
1757.00,0.04
1756.00,0.03
1755.00,0.03
1754.00,0.03
1753.00,0.03
1752.00,0.03
1751.00,0.03
1750.00,0.03
1749.00,0.03
1748.00,0.03
1747.00,0.03
1746.00,0.03
1745.00,0.03
1744.00,0.03
1743.00,0.03
1742.00,0.03
1741.00,0.03
1740.00,0.03
1739.00,0.03
1738.00,0.03
1737.00,0.03
1736.00,0.03
1735.00,0.03
1734.00,0.03
1733.00,0.03
1732.00,0.03
1731.00,0.03
1730.00,0.03
1729.00,0.03
1728.00,0.03
1727.00,0.02
1726.00,0.02
1725.00,0.02
1724.00,0.01
1723.00,0.01
1722.00,0.01
1721.00,0.01
1720.00,0.01
1719.00,0.01
1718.00,0.00
1717.00,0.00
1716.00,0.00
1715.00,0.00
1714.00,0.00
1713.00,0.00
1712.00,0.00
1711.00,0.00
1710.00,0.00
1709.00,0.00
1708.00,0.00
1707.00,0.00
1706.00,0.00
1705.00,0.01
1704.00,0.01
1703.00,0.01
1702.00,0.01
1701.00,0.02
1700.00,0.03
1699.00,0.05
1698.00,0.07
1697.00,0.09
1696.00,0.12
1695.00,0.15
1694.00,0.18
1693.00,0.19
1692.00,0.19
1691.00,0.20
1690.00,0.19
1689.00,0.19
1688.00,0.18
1687.00,0.17
1686.00,0.16
1685.00,0.15
1684.00,0.14
1683.00,0.13
1682.00,0.11
1681.00,0.10
1680.00,0.10
1679.00,0.09
1678.00,0.09
1677.00,0.08
1676.00,0.08
1675.00,0.08
1674.00,0.07
1673.00,0.07
1672.00,0.07
1671.00,0.07
1670.00,0.07
1669.00,0.07
1668.00,0.06
1667.00,0.06
1666.00,0.06
1665.00,0.06
1664.00,0.06
1663.00,0.06
1662.00,0.06
1661.00,0.06
1660.00,0.06
1659.00,0.05
1658.00,0.05
1657.00,0.05
1656.00,0.05
1655.00,0.05
1654.00,0.05
1653.00,0.05
1652.00,0.05
1651.00,0.05
1650.00,0.04
1649.00,0.04
1648.00,0.04
1647.00,0.04
1646.00,0.04
1645.00,0.04
1644.00,0.04
1643.00,0.04
1642.00,0.04
1641.00,0.04
1640.00,0.04
1639.00,0.04
1638.00,0.04
1637.00,0.04
1636.00,0.04
1635.00,0.04
1634.00,0.04
1633.00,0.04
1632.00,0.04
1631.00,0.03
1630.00,0.03
1629.00,0.03
1628.00,0.03
1627.00,0.03
1626.00,0.03
1625.00,0.03
1624.00,0.03
1623.00,0.03
1622.00,0.03
1621.00,0.03
1620.00,0.03
1619.00,0.03
1618.00,0.03
1617.00,0.03
1616.00,0.03
1615.00,0.03
1614.00,0.03
1613.00,0.03
1612.00,0.03
1611.00,0.03
1610.00,0.03
1609.00,0.03
1608.00,0.03
1607.00,0.03
1606.00,0.03
1605.00,0.03
1604.00,0.03
1603.00,0.03
1602.00,0.03
1601.00,0.03
1600.00,0.03
1599.00,0.03
1598.00,0.03
1597.00,0.03
1596.00,0.03
1595.00,0.03
1594.00,0.03
1593.00,0.03
1592.00,0.03
1591.00,0.03
1590.00,0.03
1589.00,0.03
1588.00,0.03
1587.00,0.03
1586.00,0.03
1585.00,0.03
1584.00,0.03
1583.00,0.03
1582.00,0.03
1581.00,0.03
1580.00,0.03
1579.00,0.03
1578.00,0.03
1577.00,0.03
1576.00,0.03
1575.00,0.03
1574.00,0.03
1573.00,0.03
1572.00,0.03
1571.00,0.02
1570.00,0.02
1569.00,0.02
1568.00,0.03
1567.00,0.03
1566.00,0.03
1565.00,0.03
1564.00,0.03
1563.00,0.03
1562.00,0.03
1561.00,0.03
1560.00,0.03
1559.00,0.03
1558.00,0.03
1557.00,0.03
1556.00,0.03
1555.00,0.02
1554.00,0.02
1553.00,0.02
1552.00,0.02
1551.00,0.02
1550.00,0.02
1549.00,0.02
1548.00,0.02
1547.00,0.03
1546.00,0.03
1545.00,0.02
1544.00,0.02
1543.00,0.03
1542.00,0.03
1541.00,0.03
1540.00,0.03
1539.00,0.03
1538.00,0.03
1537.00,0.03
1536.00,0.03
1535.00,0.03
1534.00,0.03
1533.00,0.03
1532.00,0.03
1531.00,0.02
1530.00,0.02
1529.00,0.02
1528.00,0.02
1527.00,0.02
1526.00,0.02
1525.00,0.02
1524.00,0.02
1523.00,0.02
1522.00,0.03
1521.00,0.03
1520.00,0.03
1519.00,0.03
1518.00,0.03
1517.00,0.03
1516.00,0.03
1515.00,0.03
1514.00,0.03
1513.00,0.03
1512.00,0.03
1511.00,0.03
1510.00,0.03
1509.00,0.03
1508.00,0.02
1507.00,0.02
1506.00,0.02
1505.00,0.02
1504.00,0.02
1503.00,0.02
1502.00,0.02
1501.00,0.02
1500.00,0.03
1499.00,0.03
1498.00,0.03
1497.00,0.03
1496.00,0.03
1495.00,0.03
1494.00,0.03
1493.00,0.03
1492.00,0.03
1491.00,0.03
1490.00,0.03
1489.00,0.03
1488.00,0.03
1487.00,0.03
1486.00,0.03
1485.00,0.03
1484.00,0.03
1483.00,0.03
1482.00,0.03
1481.00,0.03
1480.00,0.03
1479.00,0.03
1478.00,0.03
1477.00,0.03
1476.00,0.03
1475.00,0.03
1474.00,0.03
1473.00,0.03
1472.00,0.03
1471.00,0.03
1470.00,0.03
1469.00,0.03
1468.00,0.03
1467.00,0.03
1466.00,0.03
1465.00,0.03
1464.00,0.03
1463.00,0.03
1462.00,0.03
1461.00,0.03
1460.00,0.03
1459.00,0.03
1458.00,0.03
1457.00,0.03
1456.00,0.03
1455.00,0.03
1454.00,0.03
1453.00,0.03
1452.00,0.03
1451.00,0.03
1450.00,0.03
1449.00,0.03
1448.00,0.03
1447.00,0.02
1446.00,0.02
1445.00,0.02
1444.00,0.03
1443.00,0.03
1442.00,0.03
1441.00,0.03
1440.00,0.03
1439.00,0.03
1438.00,0.03
1437.00,0.03
1436.00,0.03
1435.00,0.03
1434.00,0.03
1433.00,0.03
1432.00,0.03
1431.00,0.03
1430.00,0.03
1429.00,0.03
1428.00,0.03
1427.00,0.03
1426.00,0.03
1425.00,0.03
1424.00,0.03
1423.00,0.03
1422.00,0.03
1421.00,0.03
1420.00,0.03
1419.00,0.03
1418.00,0.03
1417.00,0.03
1416.00,0.03
1415.00,0.03
1414.00,0.03
1413.00,0.03
1412.00,0.03
1411.00,0.03
1410.00,0.03
1409.00,0.03
1408.00,0.03
1407.00,0.03
1406.00,0.04
1405.00,0.04
1404.00,0.04
1403.00,0.04
1402.00,0.04
1401.00,0.04
1400.00,0.04
1399.00,0.04
1398.00,0.04
1397.00,0.04
1396.00,0.04
1395.00,0.04
1394.00,0.04
1393.00,0.04
1392.00,0.05
1391.00,0.05
1390.00,0.05
1389.00,0.05
1388.00,0.05
1387.00,0.05
1386.00,0.05
1385.00,0.05
1384.00,0.05
1383.00,0.05
1382.00,0.05
1381.00,0.05
1380.00,0.06
1379.00,0.06
1378.00,0.06
1377.00,0.06
1376.00,0.06
1375.00,0.06
1374.00,0.06
1373.00,0.06
1372.00,0.07
1371.00,0.07
1370.00,0.07
1369.00,0.07
1368.00,0.07
1367.00,0.08
1366.00,0.08
1365.00,0.08
1364.00,0.08
1363.00,0.08
1362.00,0.08
1361.00,0.09
1360.00,0.09
1359.00,0.09
1358.00,0.10
1357.00,0.10
1356.00,0.10
1355.00,0.11
1354.00,0.11
1353.00,0.12
1352.00,0.12
1351.00,0.11
1350.00,0.11
1349.00,0.10
1348.00,0.09
1347.00,0.08
1346.00,0.08
1345.00,0.08
1344.00,0.08
1343.00,0.08
1342.00,0.08
1341.00,0.08
1340.00,0.08
1339.00,0.07
1338.00,0.07
1337.00,0.06
1336.00,0.06
1335.00,0.07
1334.00,0.07
1333.00,0.08
1332.00,0.09
1331.00,0.09
1330.00,0.10
1329.00,0.11
1328.00,0.12
1327.00,0.12
1326.00,0.13
1325.00,0.14
1324.00,0.14
1323.00,0.15
1322.00,0.15
1321.00,0.15
1320.00,0.14
1319.00,0.14
1318.00,0.13
1317.00,0.12
1316.00,0.10
1315.00,0.09
1314.00,0.08
1313.00,0.07
1312.00,0.06
1311.00,0.05
1310.00,0.05
1309.00,0.05
1308.00,0.05
1307.00,0.05
1306.00,0.06
1305.00,0.07
1304.00,0.08
1303.00,0.08
1302.00,0.09
1301.00,0.10
1300.00,0.11
1299.00,0.11
1298.00,0.12
1297.00,0.13
1296.00,0.14
1295.00,0.16
1294.00,0.17
1293.00,0.18
1292.00,0.19
1291.00,0.21
1290.00,0.22
1289.00,0.23
1288.00,0.25
1287.00,0.26
1286.00,0.27
1285.00,0.29
1284.00,0.30
1283.00,0.31
1282.00,0.32
1281.00,0.33
1280.00,0.34
1279.00,0.34
1278.00,0.34
1277.00,0.34
1276.00,0.34
1275.00,0.34
1274.00,0.34
1273.00,0.35
1272.00,0.35
1271.00,0.35
1270.00,0.35
1269.00,0.34
1268.00,0.33
1267.00,0.32
1266.00,0.31
1265.00,0.30
1264.00,0.31
1263.00,0.31
1262.00,0.33
1261.00,0.34
1260.00,0.35
1259.00,0.35
1258.00,0.36
1257.00,0.36
1256.00,0.36
1255.00,0.35
1254.00,0.34
1253.00,0.33
1252.00,0.32
1251.00,0.31
1250.00,0.30
1249.00,0.29
1248.00,0.28
1247.00,0.27
1246.00,0.25
1245.00,0.24
1244.00,0.23
1243.00,0.22
1242.00,0.21
1241.00,0.20
1240.00,0.18
1239.00,0.17
1238.00,0.16
1237.00,0.15
1236.00,0.13
1235.00,0.12
1234.00,0.11
1233.00,0.11
1232.00,0.10
1231.00,0.09
1230.00,0.08
1229.00,0.07
1228.00,0.06
1227.00,0.05
1226.00,0.05
1225.00,0.04
1224.00,0.03
1223.00,0.03
1222.00,0.03
1221.00,0.04
1220.00,0.04
1219.00,0.05
1218.00,0.07
1217.00,0.08
1216.00,0.10
1215.00,0.12
1214.00,0.13
1213.00,0.15
1212.00,0.16
1211.00,0.17
1210.00,0.18
1209.00,0.19
1208.00,0.19
1207.00,0.20
1206.00,0.19
1205.00,0.19
1204.00,0.19
1203.00,0.19
1202.00,0.18
1201.00,0.17
1200.00,0.17
1199.00,0.16
1198.00,0.16
1197.00,0.15
1196.00,0.15
1195.00,0.15
1194.00,0.14
1193.00,0.14
1192.00,0.13
1191.00,0.12
1190.00,0.12
1189.00,0.11
1188.00,0.11
1187.00,0.10
1186.00,0.10
1185.00,0.09
1184.00,0.09
1183.00,0.08
1182.00,0.08
1181.00,0.08
1180.00,0.07
1179.00,0.07
1178.00,0.07
1177.00,0.06
1176.00,0.06
1175.00,0.06
1174.00,0.06
1173.00,0.06
1172.00,0.06
1171.00,0.06
1170.00,0.05
1169.00,0.05
1168.00,0.05
1167.00,0.05
1166.00,0.05
1165.00,0.04
1164.00,0.04
1163.00,0.04
1162.00,0.04
1161.00,0.04
1160.00,0.03
1159.00,0.03
1158.00,0.03
1157.00,0.03
1156.00,0.03
1155.00,0.03
1154.00,0.04
1153.00,0.04
1152.00,0.04
1151.00,0.03
1150.00,0.03
1149.00,0.03
1148.00,0.03
1147.00,0.03
1146.00,0.03
1145.00,0.03
1144.00,0.03
1143.00,0.03
1142.00,0.02
1141.00,0.02
1140.00,0.02
1139.00,0.02
1138.00,0.02
1137.00,0.02
1136.00,0.02
1135.00,0.02
1134.00,0.02
1133.00,0.01
1132.00,0.01
1131.00,0.01
1130.00,0.01
1129.00,0.02
1128.00,0.02
1127.00,0.02
1126.00,0.02
1125.00,0.02
1124.00,0.01
1123.00,0.01
1122.00,0.01
1121.00,0.01
1120.00,0.01
1119.00,0.01
1118.00,0.01
1117.00,0.01
1116.00,0.01
1115.00,0.02
1114.00,0.02
1113.00,0.02
1112.00,0.02
1111.00,0.02
1110.00,0.02
1109.00,0.02
1108.00,0.02
1107.00,0.02
1106.00,0.02
1105.00,0.02
1104.00,0.02
1103.00,0.02
1102.00,0.02
1101.00,0.01
1100.00,0.01
1099.00,0.01
1098.00,0.01
1097.00,0.01
1096.00,0.01
1095.00,0.01
1094.00,0.01
1093.00,0.01
1092.00,0.01
1091.00,0.01
1090.00,0.01
1089.00,0.01
1088.00,0.01
1087.00,0.01
1086.00,0.01
1085.00,0.01
1084.00,0.01
1083.00,0.01
1082.00,0.01
1081.00,0.01
1080.00,0.01
1079.00,0.01
1078.00,0.01
1077.00,0.01
1076.00,0.01
1075.00,0.01
1074.00,0.01
1073.00,0.01
1072.00,0.01
1071.00,0.01
1070.00,0.01
1069.00,0.01
1068.00,0.01
1067.00,0.01
1066.00,0.00
1065.00,0.00
1064.00,0.00
1063.00,0.00
1062.00,0.00
1061.00,0.00
1060.00,0.00
1059.00,0.01
1058.00,0.01
1057.00,0.01
1056.00,0.01
1055.00,0.01
1054.00,0.01
1053.00,0.01
1052.00,0.01
1051.00,0.01
1050.00,0.01
1049.00,0.01
1048.00,0.01
1047.00,0.01
1046.00,0.01
1045.00,0.01
1044.00,0.00
1043.00,0.00
1042.00,0.00
1041.00,0.01
1040.00,0.01
1039.00,0.01
1038.00,0.01
1037.00,0.01
1036.00,0.01
1035.00,0.01
1034.00,0.01
1033.00,0.01
1032.00,0.01
1031.00,0.01
1030.00,0.01
1029.00,0.00
1028.00,0.00
1027.00,0.00
1026.00,0.00
1025.00,0.00
1024.00,0.00
1023.00,0.00
1022.00,0.00
1021.00,0.00
1020.00,0.00
1019.00,0.00
1018.00,0.00
1017.00,0.00
1016.00,0.00
1015.00,0.00
1014.00,0.00
1013.00,0.00
1012.00,0.00
1011.00,0.00
1010.00,0.00
1009.00,0.01
1008.00,0.01
1007.00,0.00
1006.00,0.00
1005.00,0.00
1004.00,0.01
1003.00,0.01
1002.00,0.01
1001.00,0.00
1000.00,0.00
999.00,0.00
998.00,0.00
997.00,0.00
996.00,0.00
995.00,0.01
994.00,0.00
993.00,0.00
992.00,0.00
991.00,0.00
990.00,0.00
989.00,0.00
988.00,0.00
987.00,0.00
986.00,0.00
985.00,0.00
984.00,0.00
983.00,0.00
982.00,0.00
981.00,0.00
980.00,0.01
979.00,0.01
978.00,0.01
977.00,0.01
976.00,0.00
975.00,0.00
974.00,0.00
973.00,0.00
972.00,0.00
971.00,0.00
970.00,0.00
969.00,0.00
968.00,0.00
967.00,0.00
966.00,0.00
965.00,0.00
964.00,0.00
963.00,0.00
962.00,0.00
961.00,0.00
960.00,0.00
959.00,0.00
958.00,0.00
957.00,0.00
956.00,0.00
955.00,0.00
954.00,0.01
953.00,0.01
952.00,0.00
951.00,0.00
950.00,0.01
949.00,0.01
948.00,0.00
947.00,0.00
946.00,0.00
945.00,0.01
944.00,0.00
943.00,0.00
942.00,0.00
941.00,0.00
940.00,0.00
939.00,0.00
938.00,0.00
937.00,0.00
936.00,0.00
935.00,0.00
934.00,0.00
933.00,0.00
932.00,0.00
931.00,0.00
930.00,0.00
929.00,0.00
928.00,0.00
927.00,0.00
926.00,0.00
925.00,0.00
924.00,0.00
923.00,0.00
922.00,0.01
921.00,0.01
920.00,0.01
919.00,0.01
918.00,0.01
917.00,0.01
916.00,0.01
915.00,0.00
914.00,0.00
913.00,0.00
912.00,0.00
911.00,0.00
910.00,0.00
909.00,0.00
908.00,0.00
907.00,0.00
906.00,0.00
905.00,0.00
904.00,0.00
903.00,0.00
902.00,0.00
901.00,0.00
900.00,0.00
899.00,0.00
898.00,0.00
897.00,0.00
896.00,0.01
895.00,0.01
894.00,0.01
893.00,0.01
892.00,0.01
891.00,0.01
890.00,0.01
889.00,0.00
888.00,0.00
887.00,0.00
886.00,0.00
885.00,0.00
884.00,0.00
883.00,0.00
882.00,0.00
881.00,0.00
880.00,0.00
879.00,0.00
878.00,0.00
877.00,0.00
876.00,0.00
875.00,0.01
874.00,0.01
873.00,0.01
872.00,0.01
871.00,0.01
870.00,0.01
869.00,0.01
868.00,0.00
867.00,0.00
866.00,0.00
865.00,0.01
864.00,0.01
863.00,0.01
862.00,0.01
861.00,0.01
860.00,0.01
859.00,0.01
858.00,0.01
857.00,0.01
856.00,0.01
855.00,0.01
854.00,0.01
853.00,0.01
852.00,0.01
851.00,0.01
850.00,0.01
849.00,0.00
848.00,0.00
847.00,0.00
846.00,0.00
845.00,0.00
844.00,0.00
843.00,0.00
842.00,0.00
841.00,0.00
840.00,0.00
839.00,0.00
838.00,0.00
837.00,0.00
836.00,0.00
835.00,0.00
834.00,0.00
833.00,0.00
832.00,0.00
831.00,0.00
830.00,0.00
829.00,0.00
828.00,0.00
827.00,0.00
826.00,0.00
825.00,0.00
824.00,0.00
823.00,0.00
822.00,0.00
821.00,0.00
820.00,0.01
819.00,0.01
818.00,0.01
817.00,0.01
816.00,0.01
815.00,0.01
814.00,0.01
813.00,0.00
812.00,0.01
811.00,0.01
810.00,0.01
809.00,0.00
808.00,0.01
807.00,0.01
806.00,0.01
805.00,0.01
804.00,0.00
803.00,0.00
802.00,0.00
801.00,0.00
800.00,0.00
799.00,0.00
798.00,0.00
797.00,0.00
796.00,0.00
795.00,0.00
794.00,0.01
793.00,0.01
792.00,0.01
791.00,0.00
790.00,0.00
789.00,0.00
788.00,0.01
787.00,0.00
786.00,0.00
785.00,0.00
784.00,0.00
783.00,0.00
782.00,0.01
781.00,0.01
780.00,0.01
779.00,0.01
778.00,0.01
777.00,0.00
776.00,0.00
775.00,0.00
774.00,0.01
773.00,0.01
772.00,0.01
771.00,0.01
770.00,0.01
769.00,0.01
768.00,0.01
767.00,0.00
766.00,0.00
765.00,0.00
764.00,0.00
763.00,0.00
762.00,0.00
761.00,0.00
760.00,0.00
759.00,0.01
758.00,0.00
757.00,0.00
756.00,0.01
755.00,0.01
754.00,0.01
753.00,0.01
752.00,0.01
751.00,0.00
750.00,0.00
749.00,0.01
748.00,0.01
747.00,0.00
746.00,0.00
745.00,0.00
744.00,0.00
743.00,0.00
742.00,0.00
741.00,0.01
740.00,0.01
739.00,0.01
738.00,0.00
737.00,0.00
736.00,0.01
735.00,0.01
734.00,0.01
733.00,0.01
732.00,0.01
731.00,0.01
730.00,0.01
729.00,0.01
728.00,0.01
727.00,0.01
726.00,0.01
725.00,0.01
724.00,0.01
723.00,0.00
722.00,0.00
721.00,0.01
720.00,0.01
719.00,0.01
718.00,0.01
717.00,0.01
716.00,0.01
715.00,0.01
714.00,0.01
713.00,0.01
712.00,0.01
711.00,0.01
710.00,0.01
709.00,0.00
708.00,0.00
707.00,0.00
706.00,0.01
705.00,0.01
704.00,0.00
703.00,0.00
702.00,0.00
701.00,0.00
700.00,0.00
699.00,0.00
698.00,0.00
697.00,0.00
696.00,0.00
695.00,0.00
694.00,0.00
693.00,0.00
692.00,0.01
691.00,0.01
690.00,0.00
689.00,0.00
688.00,0.01
687.00,0.01
686.00,0.01
685.00,0.01
684.00,0.01
683.00,0.01
682.00,0.01
681.00,0.01
680.00,0.01
679.00,0.00
678.00,0.00
677.00,0.01
676.00,0.01
675.00,0.01
674.00,0.00
673.00,0.00
672.00,0.01
671.00,0.01
670.00,0.00
669.00,0.00
668.00,0.00
667.00,0.00
666.00,0.01
665.00,0.01
664.00,0.01
663.00,0.00
662.00,0.00
661.00,0.00
660.00,0.00
659.00,0.00
658.00,0.01
657.00,0.00
656.00,0.00
655.00,0.00
654.00,0.01
653.00,0.01
652.00,0.01
651.00,0.01
650.00,0.01
649.00,0.01
648.00,0.01
647.00,0.01
646.00,0.01
645.00,0.01
644.00,0.01
643.00,0.01
642.00,0.01
641.00,0.00
640.00,0.00
639.00,0.00
638.00,0.01
637.00,0.01
636.00,0.01
635.00,0.00
634.00,0.01
633.00,0.01
632.00,0.01
631.00,0.02
630.00,0.02
629.00,0.01
628.00,0.01
627.00,0.02
626.00,0.02
625.00,0.02
624.00,0.02
623.00,0.01
622.00,0.00
621.00,0.00
620.00,0.01
619.00,0.00
618.00,0.00
617.00,0.00
616.00,0.00
615.00,0.00
614.00,0.00
613.00,0.00
612.00,0.00
611.00,0.00
610.00,0.01
609.00,0.01
608.00,0.01
607.00,0.01
606.00,0.01
605.00,0.00
604.00,0.00
603.00,0.01
602.00,0.01
601.00,0.01
600.00,0.01
599.00,0.01
598.00,0.01
597.00,0.01
596.00,0.00
595.00,0.01
594.00,0.01
593.00,0.01
592.00,0.01
591.00,0.01
590.00,0.02
589.00,0.02
588.00,0.02
587.00,0.02
586.00,0.01
585.00,0.00
584.00,0.01
583.00,0.01
582.00,0.01
581.00,0.01
580.00,0.01
579.00,0.00
578.00,0.00
577.00,0.00
576.00,0.00
575.00,0.01
574.00,0.01
573.00,0.02
572.00,0.02
571.00,0.02
570.00,0.02
569.00,0.01
568.00,0.00
567.00,0.00
566.00,0.00
565.00,0.00
564.00,0.00
563.00,0.01
562.00,0.01
561.00,0.02
560.00,0.02
559.00,0.01
558.00,0.00
557.00,0.01
556.00,0.02
555.00,0.03
554.00,0.03
553.00,0.02
552.00,0.02
551.00,0.02
550.00,0.02
549.00,0.02
548.00,0.01
547.00,0.01
546.00,0.01
545.00,0.01
544.00,0.02
543.00,0.03
542.00,0.03
541.00,0.03
540.00,0.02
539.00,0.01
538.00,0.01
537.00,0.02
536.00,0.01
535.00,0.01
534.00,0.00
533.00,0.01
532.00,0.02
531.00,0.02
530.00,0.02
529.00,0.02
528.00,0.03
527.00,0.02
526.00,0.02
525.00,0.01
524.00,0.01
523.00,0.01
522.00,0.01
521.00,0.00
520.00,0.00
519.00,0.01
518.00,0.01
517.00,0.02
516.00,0.03
515.00,0.03
514.00,0.04
513.00,0.05
512.00,0.05
511.00,0.04
510.00,0.03
509.00,0.01
508.00,0.00
507.00,0.00
506.00,0.00
505.00,0.01
504.00,0.02
503.00,0.02
502.00,0.03
501.00,0.02
500.00,0.02
499.00,0.02
498.00,0.02
497.00,0.03
496.00,0.03
495.00,0.02
494.00,0.02
493.00,0.02
492.00,0.02
491.00,0.01
490.00,0.01
489.00,0.01
488.00,0.02
487.00,0.02
486.00,0.02
485.00,0.01
484.00,0.02
483.00,0.03
482.00,0.04
481.00,0.04
480.00,0.03
479.00,0.02
478.00,0.01
477.00,0.01
476.00,0.01
475.00,0.01
474.00,0.02
473.00,0.03
472.00,0.04
471.00,0.05
470.00,0.04
469.00,0.04
468.00,0.04
467.00,0.05
466.00,0.05
465.00,0.05
464.00,0.05
463.00,0.05
462.00,0.03
461.00,0.02
460.00,0.02
459.00,0.03
458.00,0.03
457.00,0.02
456.00,0.01
455.00,0.01
454.00,0.01
453.00,0.02
452.00,0.02
451.00,0.04
450.00,0.06
449.00,0.08
448.00,0.08
447.00,0.07
446.00,0.06
445.00,0.04
444.00,0.03
443.00,0.03
442.00,0.04
441.00,0.05
440.00,0.06
439.00,0.06
438.00,0.05
437.00,0.03
436.00,0.01
435.00,0.03
434.00,0.04
433.00,0.04
432.00,0.05
431.00,0.05
430.00,0.03
429.00,0.04
428.00,0.06
427.00,0.05
426.00,0.03
425.00,0.03
424.00,0.04
423.00,0.06
422.00,0.08
421.00,0.10
420.00,0.10
419.00,0.08
418.00,0.05
417.00,0.03
416.00,0.03
415.00,0.02
414.00,0.01
413.00,0.02
412.00,0.05
411.00,0.08
410.00,0.10
409.00,0.09
408.00,0.09
407.00,0.10
406.00,0.12
405.00,0.12
404.00,0.10
403.00,0.05
402.00,0.02
401.00,0.09
400.00,0.13
