;1;
Wavenumbers [1/cm];Transmittance;
7496,969;0,1079819;
7495,040;0,1072315;
7493,112;0,1064162;
7491,183;0,1053136;
7489,254;0,10394;
7487,326;0,1030747;
7485,397;0,1027099;
7483,468;0,1022296;
7481,539;0,1014619;
7479,611;0,100375;
7477,682;0,09908495;
7475,753;0,09777887;
7473,824;0,09659193;
7471,896;0,09587485;
7469,967;0,09565173;
7468,038;0,09512364;
7466,110;0,0939424;
7464,181;0,09286158;
7462,252;0,09245545;
7460,323;0,09244208;
7458,395;0,09209473;
7456,466;0,09119167;
7454,537;0,090307;
7452,608;0,08961978;
7450,680;0,08870663;
7448,751;0,08767033;
7446,822;0,08697511;
7444,893;0,08639628;
7442,965;0,08550981;
7441,036;0,08461271;
7439,107;0,08422041;
7437,179;0,08425043;
7435,250;0,08408126;
7433,321;0,08356912;
7431,392;0,0830765;
7429,464;0,08223508;
7427,535;0,08076596;
7425,606;0,07982375;
7423,677;0,08003215;
7421,749;0,07994716;
7419,820;0,07878473;
7417,891;0,07766353;
7415,963;0,07726601;
7414,034;0,07733518;
7412,105;0,07758754;
7410,176;0,07754007;
7408,248;0,07674539;
7406,319;0,07569435;
7404,390;0,07537536;
7402,461;0,07555499;
7400,533;0,07521601;
7398,604;0,07447347;
7396,675;0,07389738;
7394,747;0,07338616;
7392,818;0,07293844;
7390,889;0,07252695;
7388,960;0,07199482;
7387,032;0,07174443;
7385,103;0,07172156;
7383,174;0,07139212;
7381,245;0,07069869;
7379,317;0,06980944;
7377,388;0,0696126;
7375,459;0,07053764;
7373,531;0,07106749;
7371,602;0,07063577;
7369,673;0,07038675;
7367,744;0,07054719;
7365,816;0,07070725;
7363,887;0,07069211;
7361,958;0,07018561;
7360,029;0,06950156;
7358,101;0,06936684;
7356,172;0,06921281;
7354,243;0,06812228;
7352,314;0,06698207;
7350,386;0,06697651;
7348,457;0,06755979;
7346,528;0,06786215;
7344,600;0,06775356;
7342,671;0,06741913;
7340,742;0,06755214;
7338,813;0,06856193;
7336,885;0,0695875;
7334,956;0,06987476;
7333,027;0,06969491;
7331,098;0,06940719;
7329,170;0,06916084;
7327,241;0,06923445;
7325,312;0,0697399;
7323,384;0,07025319;
7321,455;0,07036228;
7319,526;0,07036403;
7317,597;0,07060508;
7315,669;0,07057961;
7313,740;0,07003982;
7311,811;0,06975004;
7309,882;0,07017435;
7307,954;0,07089966;
7306,025;0,07122742;
7304,096;0,07079068;
7302,168;0,06978001;
7300,239;0,06898049;
7298,310;0,06921116;
7296,381;0,07015662;
7294,453;0,07127748;
7292,524;0,07256383;
7290,595;0,07342869;
7288,666;0,07354971;
7286,738;0,0736046;
7284,809;0,07399143;
7282,880;0,07449005;
7280,952;0,07485299;
7279,023;0,07516394;
7277,094;0,07575328;
7275,165;0,07635357;
7273,237;0,07638899;
7271,308;0,07621738;
7269,379;0,0764904;
7267,450;0,0771758;
7265,522;0,07785062;
7263,593;0,07796196;
7261,664;0,07743961;
7259,736;0,07712667;
7257,807;0,07778174;
7255,878;0,07909097;
7253,949;0,08032001;
7252,021;0,08133311;
7250,092;0,08225233;
7248,163;0,08297408;
7246,234;0,08347198;
7244,306;0,08378348;
7242,377;0,08383951;
7240,448;0,08397146;
7238,519;0,08469652;
7236,591;0,08583819;
7234,662;0,086965;
7232,733;0,08785103;
7230,805;0,08838965;
7228,876;0,08880719;
7226,947;0,08938079;
7225,018;0,09040911;
7223,090;0,09161332;
7221,161;0,09192412;
7219,232;0,09166031;
7217,303;0,09219536;
7215,375;0,09358598;
7213,446;0,09538408;
7211,517;0,09709335;
7209,589;0,09796698;
7207,660;0,09817634;
7205,731;0,09832415;
7203,802;0,09885354;
7201,874;0,1001369;
7199,945;0,1018058;
7198,016;0,1032759;
7196,087;0,1043765;
7194,159;0,1050673;
7192,230;0,1056687;
7190,301;0,1065312;
7188,373;0,1075793;
7186,444;0,1088692;
7184,515;0,1103651;
7182,586;0,1115597;
7180,658;0,1122024;
7178,729;0,1127273;
7176,800;0,1136841;
7174,871;0,1149849;
7172,943;0,1164988;
7171,014;0,118371;
7169,085;0,1201259;
7167,157;0,1213407;
7165,228;0,122267;
7163,299;0,1229904;
7161,370;0,1236112;
7159,442;0,1246507;
7157,513;0,1262315;
7155,584;0,1278098;
7153,655;0,1290147;
7151,727;0,1300426;
7149,798;0,1313552;
7147,869;0,1328438;
7145,941;0,1338682;
7144,012;0,1347327;
7142,083;0,1360623;
7140,154;0,1371418;
7138,226;0,1374846;
7136,297;0,1380869;
7134,368;0,139444;
7132,439;0,1411695;
7130,511;0,143089;
7128,582;0,1447846;
7126,653;0,1459493;
7124,724;0,1469606;
7122,796;0,1479861;
7120,867;0,1487319;
7118,938;0,1492584;
7117,010;0,1500888;
7115,081;0,1514607;
7113,152;0,1530081;
7111,223;0,154227;
7109,295;0,1551374;
7107,366;0,1560107;
7105,437;0,1570244;
7103,508;0,1583283;
7101,580;0,1596938;
7099,651;0,1609194;
7097,722;0,161945;
7095,794;0,1624953;
7093,865;0,1627047;
7091,936;0,1631724;
7090,007;0,1642535;
7088,079;0,1655971;
7086,150;0,1666049;
7084,221;0,1672436;
7082,292;0,1679372;
7080,364;0,1689316;
7078,435;0,1699567;
7076,506;0,1706134;
7074,578;0,1708996;
7072,649;0,1712462;
7070,720;0,1719009;
7068,791;0,1726615;
7066,863;0,1734662;
7064,934;0,1742861;
7063,005;0,1748406;
7061,076;0,1749095;
7059,148;0,1748108;
7057,219;0,1750452;
7055,290;0,1752707;
7053,362;0,1750591;
7051,433;0,1748812;
7049,504;0,1752687;
7047,575;0,1760436;
7045,647;0,1767264;
7043,718;0,1770992;
7041,789;0,1770786;
7039,860;0,1767493;
7037,932;0,1764051;
7036,003;0,1762997;
7034,074;0,1764653;
7032,146;0,1765529;
7030,217;0,1763891;
7028,288;0,1762032;
7026,359;0,1759741;
7024,431;0,1756424;
7022,502;0,1753272;
7020,573;0,1749167;
7018,644;0,1744333;
7016,716;0,1739962;
7014,787;0,1733402;
7012,858;0,1724538;
7010,929;0,1715429;
7009,001;0,1707885;
7007,072;0,1705592;
7005,143;0,1704365;
7003,215;0,1696916;
7001,286;0,1685714;
6999,357;0,1674008;
6997,428;0,166329;
6995,500;0,1656914;
6993,571;0,1653503;
6991,642;0,1647926;
6989,713;0,1639023;
6987,785;0,1629911;
6985,856;0,1620912;
6983,927;0,1610589;
6981,999;0,1600135;
6980,070;0,1588371;
6978,141;0,1575543;
6976,212;0,1565853;
6974,284;0,1557898;
6972,355;0,1547414;
6970,426;0,1534238;
6968,497;0,1520413;
6966,569;0,1507284;
6964,640;0,1494536;
6962,711;0,1481713;
6960,783;0,1468933;
6958,854;0,145671;
6956,925;0,1445179;
6954,996;0,1433448;
6953,068;0,1420038;
6951,139;0,1404124;
6949,210;0,1389083;
6947,281;0,1378307;
6945,353;0,1368776;
6943,424;0,1357265;
6941,495;0,1344057;
6939,567;0,1330218;
6937,638;0,1317042;
6935,709;0,1303024;
6933,780;0,1286732;
6931,852;0,1271975;
6929,923;0,1261692;
6927,994;0,125236;
6926,065;0,1239073;
6924,137;0,1223962;
6922,208;0,1211643;
6920,279;0,1199419;
6918,350;0,1184779;
6916,422;0,1171904;
6914,493;0,1162811;
6912,564;0,1153588;
6910,636;0,1141057;
6908,707;0,1127126;
6906,778;0,1114479;
6904,849;0,1101601;
6902,921;0,108691;
6900,992;0,1072885;
6899,063;0,1061304;
6897,134;0,1050786;
6895,206;0,1040707;
6893,277;0,1031964;
6891,348;0,1023718;
6889,420;0,1012952;
6887,491;0,0999423;
6885,562;0,09878054;
6883,633;0,09803131;
6881,705;0,09727003;
6879,776;0,0962324;
6877,847;0,09522864;
6875,918;0,09440723;
6873,990;0,09346303;
6872,061;0,09225631;
6870,132;0,09092258;
6868,204;0,08958512;
6866,275;0,0884961;
6864,346;0,08776752;
6862,417;0,08713635;
6860,489;0,08640894;
6858,560;0,08547304;
6856,631;0,08425886;
6854,702;0,08311998;
6852,774;0,08244225;
6850,845;0,08199643;
6848,916;0,08134643;
6846,988;0,08056227;
6845,059;0,0799852;
6843,130;0,07948244;
6841,201;0,07865056;
6839,273;0,07767098;
6837,344;0,07695681;
6835,415;0,07642423;
6833,486;0,07580428;
6831,558;0,07498916;
6829,629;0,07410648;
6827,700;0,07338326;
6825,772;0,07289996;
6823,843;0,07251301;
6821,914;0,07195926;
6819,985;0,07132355;
6818,057;0,07087676;
6816,128;0,07046293;
6814,199;0,06989143;
6812,270;0,06926861;
6810,342;0,0686002;
6808,413;0,06792972;
6806,484;0,06752519;
6804,555;0,06735028;
6802,627;0,06707463;
6800,698;0,06674702;
6798,769;0,06654846;
6796,841;0,06617587;
6794,912;0,0654871;
6792,983;0,06488812;
6791,054;0,0645896;
6789,126;0,06438284;
6787,197;0,06403311;
6785,268;0,06365639;
6783,339;0,0634415;
6781,411;0,06323046;
6779,482;0,06292133;
6777,553;0,06257031;
6775,625;0,06223872;
6773,696;0,06201115;
6771,767;0,06179478;
6769,838;0,06148128;
6767,910;0,06117637;
6765,981;0,06101804;
6764,052;0,06098649;
6762,123;0,06096832;
6760,195;0,06100421;
6758,266;0,06108902;
6756,337;0,06090882;
6754,409;0,06046151;
6752,480;0,06008162;
6750,551;0,05970814;
6748,622;0,05937308;
6746,694;0,05930137;
6744,765;0,05923332;
6742,836;0,05908259;
6740,907;0,05915359;
6738,979;0,05931245;
6737,050;0,05932283;
6735,121;0,05928354;
6733,193;0,05922187;
6731,264;0,05912364;
6729,335;0,05904714;
6727,406;0,05904624;
6725,478;0,05921896;
6723,549;0,05947001;
6721,620;0,05959908;
6719,691;0,05958021;
6717,763;0,05944426;
6715,834;0,05931305;
6713,905;0,05931484;
6711,977;0,05940181;
6710,048;0,05956957;
6708,119;0,05986761;
6706,190;0,06008803;
6704,262;0,06013097;
6702,333;0,06020797;
6700,404;0,06030776;
6698,475;0,06035959;
6696,547;0,06051886;
6694,618;0,06085929;
6692,689;0,06124225;
6690,760;0,06147457;
6688,832;0,06156708;
6686,903;0,06168804;
6684,974;0,06192636;
6683,046;0,0622494;
6681,117;0,06249177;
6679,188;0,06258619;
6677,259;0,06278545;
6675,331;0,06324147;
6673,402;0,06375889;
6671,473;0,06418055;
6669,544;0,06444399;
6667,616;0,06461384;
6665,687;0,06493215;
6663,758;0,06541412;
6661,830;0,06594385;
6659,901;0,0665091;
6657,972;0,06701208;
6656,043;0,06737963;
6654,115;0,0676925;
6652,186;0,06786305;
6650,257;0,06788171;
6648,328;0,06824976;
6646,400;0,06912102;
6644,471;0,07003313;
6642,542;0,0708823;
6640,614;0,07180659;
6638,685;0,0726468;
6636,756;0,07318389;
6634,827;0,07338873;
6632,899;0,0734981;
6630,970;0,07396656;
6629,041;0,07493213;
6627,112;0,07594918;
6625,184;0,07662056;
6623,255;0,07707152;
6621,326;0,07769784;
6619,398;0,07857782;
6617,469;0,07948937;
6615,540;0,08029359;
6613,611;0,08081865;
6611,683;0,08120674;
6609,754;0,08197082;
6607,825;0,08306874;
6605,896;0,08401834;
6603,968;0,08483577;
6602,039;0,08582446;
6600,110;0,08680891;
6598,182;0,087581;
6596,253;0,08834433;
6594,324;0,08912017;
6592,395;0,08992653;
6590,467;0,09109459;
6588,538;0,09252934;
6586,609;0,0937233;
6584,680;0,09456581;
6582,752;0,09536093;
6580,823;0,09634326;
6578,894;0,09746358;
6576,965;0,09853341;
6575,037;0,09949467;
6573,108;0,1005589;
6571,179;0,1018756;
6569,251;0,1031128;
6567,322;0,1040481;
6565,393;0,1050367;
6563,464;0,1063331;
6561,536;0,1078117;
6559,607;0,1092925;
6557,678;0,1105679;
6555,749;0,111492;
6553,821;0,1122875;
6551,892;0,1133074;
6549,963;0,1146119;
6548,035;0,1160616;
6546,106;0,1174774;
6544,177;0,1187789;
6542,248;0,1200209;
6540,320;0,1212783;
6538,391;0,1225276;
6536,462;0,1236441;
6534,533;0,1247677;
6532,605;0,126158;
6530,676;0,1276302;
6528,747;0,1289075;
6526,819;0,1301237;
6524,890;0,1313821;
6522,961;0,1325187;
6521,032;0,1336124;
6519,104;0,1348179;
6517,175;0,13603;
6515,246;0,1373341;
6513,317;0,138826;
6511,389;0,1401615;
6509,460;0,1411393;
6507,531;0,1420612;
6505,603;0,1431886;
6503,674;0,144466;
6501,745;0,1457278;
6499,816;0,1468855;
6497,888;0,1480559;
6495,959;0,1493493;
6494,030;0,1505883;
6492,101;0,1515601;
6490,173;0,1522961;
6488,244;0,1530685;
6486,315;0,1541019;
6484,386;0,1552022;
6482,458;0,1561302;
6480,529;0,1569761;
6478,600;0,1578452;
6476,672;0,1587495;
6474,743;0,1596142;
6472,814;0,1603893;
6470,885;0,1612385;
6468,957;0,1621435;
6467,028;0,1627804;
6465,099;0,1630547;
6463,170;0,1632509;
6461,242;0,1636998;
6459,313;0,1644512;
6457,384;0,1652589;
6455,456;0,165875;
6453,527;0,1662726;
6451,598;0,1665746;
6449,669;0,1668056;
6447,741;0,1670024;
6445,812;0,1673255;
6443,883;0,1675961;
6441,954;0,1675533;
6440,026;0,1675627;
6438,097;0,1678394;
6436,168;0,1678444;
6434,240;0,1674149;
6432,311;0,1670378;
6430,382;0,1668469;
6428,453;0,166683;
6426,525;0,1665497;
6424,596;0,1663987;
6422,667;0,1660907;
6420,738;0,1655614;
6418,810;0,1649006;
6416,881;0,1642628;
6414,952;0,1637649;
6413,024;0,1634084;
6411,095;0,1629259;
6409,166;0,1621317;
6407,237;0,161198;
6405,309;0,1603432;
6403,380;0,1596659;
6401,451;0,1589834;
6399,522;0,158053;
6397,594;0,1570149;
6395,665;0,1560078;
6393,736;0,1549648;
6391,808;0,1539165;
6389,879;0,1529362;
6387,950;0,1520126;
6386,021;0,1510096;
6384,093;0,1498709;
6382,164;0,1487139;
6380,235;0,147562;
6378,306;0,1464438;
6376,378;0,1452963;
6374,449;0,143863;
6372,520;0,1422314;
6370,591;0,140728;
6368,663;0,1393743;
6366,734;0,1379975;
6364,805;0,1365479;
6362,877;0,1351828;
6360,948;0,1340104;
6359,019;0,1328579;
6357,090;0,1315736;
6355,162;0,1301165;
6353,233;0,1284477;
6351,304;0,1268255;
6349,375;0,1255444;
6347,447;0,124476;
6345,518;0,1232841;
6343,589;0,1217421;
6341,661;0,120058;
6339,732;0,1185771;
6337,803;0,1172273;
6335,874;0,1158806;
6333,946;0,1145942;
6332,017;0,113358;
6330,088;0,1120617;
6328,159;0,1106118;
6326,231;0,1091001;
6324,302;0,1077697;
6322,373;0,1066778;
6320,445;0,1056168;
6318,516;0,1044658;
6316,587;0,1032694;
6314,658;0,1020234;
6312,730;0,1007172;
6310,801;0,0993851;
6308,872;0,09807938;
6306,943;0,09685495;
6305,015;0,0956731;
6303,086;0,09446804;
6301,157;0,09329869;
6299,229;0,09225069;
6297,300;0,09127606;
6295,371;0,09031581;
6293,442;0,08930936;
6291,514;0,08807307;
6289,585;0,08669189;
6287,656;0,08555005;
6285,727;0,08470499;
6283,799;0,08393803;
6281,870;0,08311296;
6279,941;0,08214172;
6278,013;0,08101243;
6276,084;0,07994284;
6274,155;0,07918487;
6272,226;0,07858761;
6270,298;0,07775404;
6268,369;0,07658668;
6266,440;0,07544034;
6264,511;0,07467306;
6262,583;0,07411086;
6260,654;0,07347178;
6258,725;0,07281443;
6256,796;0,07210433;
6254,868;0,07123659;
6252,939;0,07040348;
6251,010;0,06979587;
6249,082;0,0693259;
6247,153;0,06885548;
6245,224;0,06825282;
6243,295;0,0673994;
6241,367;0,06652986;
6239,438;0,0659541;
6237,509;0,06549489;
6235,580;0,06489167;
6233,652;0,06421687;
6231,723;0,06362371;
6229,794;0,06311145;
6227,866;0,06258951;
6225,937;0,06208232;
6224,008;0,06160436;
6222,079;0,06104739;
6220,151;0,06045699;
6218,222;0,05997572;
6216,293;0,05964962;
6214,364;0,05941782;
6212,436;0,05908288;
6210,507;0,05860211;
6208,578;0,05821732;
6206,650;0,05799896;
6204,721;0,05773487;
6202,792;0,05736484;
6200,863;0,05704222;
6198,935;0,05675725;
6197,006;0,05639192;
6195,077;0,05605741;
6193,148;0,05588849;
6191,220;0,05574873;
6189,291;0,05549083;
6187,362;0,05515169;
6185,434;0,05480503;
6183,505;0,05450187;
6181,576;0,05430325;
6179,647;0,05422835;
6177,719;0,05416182;
6175,790;0,0539926;
6173,861;0,05378065;
6171,932;0,05358212;
6170,004;0,05339643;
6168,075;0,05329126;
6166,146;0,05325433;
6164,218;0,05318494;
6162,289;0,05308653;
6160,360;0,05299675;
6158,431;0,05294456;
6156,503;0,05293677;
6154,574;0,05291969;
6152,645;0,05285423;
6150,716;0,05269615;
6148,788;0,05250766;
6146,859;0,05245362;
6144,930;0,05251136;
6143,001;0,05259744;
6141,073;0,05269537;
6139,144;0,05277304;
6137,215;0,05283528;
6135,287;0,05285989;
6133,358;0,05286871;
6131,429;0,05295558;
6129,500;0,05307239;
6127,572;0,0531282;
6125,643;0,05309704;
6123,714;0,05299225;
6121,785;0,05300301;
6119,857;0,05329694;
6117,928;0,0536532;
6115,999;0,05373886;
6114,071;0,05360312;
6112,142;0,05357241;
6110,213;0,05378972;
6108,284;0,05405828;
6106,356;0,05422395;
6104,427;0,05443633;
6102,498;0,05477799;
6100,569;0,05512733;
6098,641;0,05547234;
6096,712;0,05582572;
6094,783;0,05602073;
6092,855;0,05603455;
6090,926;0,05615811;
6088,997;0,05650358;
6087,068;0,05691129;
6085,140;0,05732603;
6083,211;0,05769812;
6081,282;0,05798395;
6079,353;0,05829825;
6077,425;0,05868759;
6075,496;0,05906649;
6073,567;0,05934943;
6071,639;0,05957291;
6069,710;0,05992217;
6067,781;0,0604587;
6065,852;0,06101162;
6063,924;0,06144762;
6061,995;0,0618448;
6060,066;0,06237323;
6058,137;0,06306133;
6056,209;0,06376082;
6054,280;0,06434744;
6052,351;0,06485853;
6050,423;0,06537279;
6048,494;0,06587089;
6046,565;0,0663636;
6044,636;0,06693525;
6042,708;0,06761246;
6040,779;0,06834153;
6038,850;0,06904781;
6036,921;0,06974955;
6034,993;0,0704701;
6033,064;0,07113457;
6031,135;0,07175727;
6029,206;0,07248692;
6027,278;0,07342485;
6025,349;0,07440688;
6023,420;0,07516552;
6021,492;0,07578883;
6019,563;0,07651284;
6017,634;0,07734407;
6015,705;0,07824566;
6013,777;0,07920917;
6011,848;0,08014514;
6009,919;0,08101758;
6007,990;0,08189688;
6006,062;0,08276703;
6004,133;0,08358207;
6002,204;0,08439659;
6000,276;0,08523069;
5998,347;0,08611755;
5996,418;0,08712035;
5994,489;0,08815914;
5992,561;0,08917799;
5990,632;0,0902563;
5988,703;0,09142609;
5986,774;0,09263547;
5984,846;0,09385723;
5982,917;0,09510034;
5980,988;0,09631424;
5979,060;0,09744292;
5977,131;0,09850919;
5975,202;0,09956467;
5973,273;0,1006616;
5971,345;0,1018509;
5969,416;0,1031312;
5967,487;0,1044097;
5965,558;0,1056753;
5963,630;0,1069909;
5961,701;0,108264;
5959,772;0,1094453;
5957,844;0,110683;
5955,915;0,1120827;
5953,986;0,1135789;
5952,057;0,1150306;
5950,129;0,1163659;
5948,200;0,1176637;
5946,271;0,119022;
5944,342;0,1203924;
5942,414;0,1217774;
5940,485;0,1232918;
5938,556;0,1248857;
5936,627;0,1263503;
5934,699;0,1276389;
5932,770;0,1290075;
5930,841;0,1305556;
5928,913;0,1320458;
5926,984;0,1334194;
5925,055;0,1348333;
5923,126;0,1363259;
5921,198;0,137805;
5919,269;0,1391736;
5917,340;0,1404472;
5915,411;0,1417373;
5913,483;0,1430842;
5911,554;0,1444498;
5909,625;0,1458062;
5907,697;0,1471028;
5905,768;0,1483673;
5903,839;0,1496894;
5901,910;0,1509926;
5899,982;0,152174;
5898,053;0,1532854;
5896,124;0,154366;
5894,195;0,1553909;
5892,267;0,1564083;
5890,338;0,1574811;
5888,409;0,1585734;
5886,481;0,1596153;
5884,552;0,1605914;
5882,623;0,1614638;
5880,694;0,162169;
5878,766;0,1628299;
5876,837;0,1635741;
5874,908;0,1642686;
5872,979;0,1648399;
5871,051;0,1653946;
5869,122;0,1659673;
5867,193;0,1665328;
5865,265;0,167071;
5863,336;0,1675644;
5861,407;0,1680302;
5859,478;0,1684458;
5857,550;0,1687489;
5855,621;0,1689215;
5853,692;0,1690148;
5851,763;0,1691546;
5849,835;0,169329;
5847,906;0,1693617;
5845,977;0,1692451;
5844,049;0,1691165;
5842,120;0,1690252;
5840,191;0,1689405;
5838,262;0,1687898;
5836,334;0,1684388;
5834,405;0,1678992;
5832,476;0,1674002;
5830,547;0,1670466;
5828,619;0,1667941;
5826,690;0,1664788;
5824,761;0,1658224;
5822,832;0,1648796;
5820,904;0,1639539;
5818,975;0,1631214;
5817,046;0,1623251;
5815,118;0,1615738;
5813,189;0,1607964;
5811,260;0,159815;
5809,331;0,1586645;
5807,403;0,1575286;
5805,474;0,1564313;
5803,545;0,1552749;
5801,616;0,1540209;
5799,688;0,1528268;
5797,759;0,1517266;
5795,830;0,1504819;
5793,902;0,1490762;
5791,973;0,1476955;
5790,044;0,1463358;
5788,115;0,144858;
5786,187;0,1432882;
5784,258;0,1418224;
5782,329;0,1404413;
5780,400;0,138943;
5778,472;0,1373504;
5776,543;0,1357704;
5774,614;0,1341531;
5772,686;0,1325308;
5770,757;0,1309792;
5768,828;0,129418;
5766,899;0,1278273;
5764,971;0,1262535;
5763,042;0,1245943;
5761,113;0,1227891;
5759,184;0,1210459;
5757,256;0,1194709;
5755,327;0,1178428;
5753,398;0,1161196;
5751,470;0,1144942;
5749,541;0,1129842;
5747,612;0,1114854;
5745,683;0,1099226;
5743,755;0,1082973;
5741,826;0,1066913;
5739,897;0,1050934;
5737,968;0,1034031;
5736,040;0,1016969;
5734,111;0,1001532;
5732,182;0,09881804;
5730,254;0,0976201;
5728,325;0,09635311;
5726,396;0,09491056;
5724,467;0,09346712;
5722,539;0,09212042;
5720,610;0,0908195;
5718,681;0,08957998;
5716,752;0,08841811;
5714,824;0,08727187;
5712,895;0,08610748;
5710,966;0,08493302;
5709,037;0,08375352;
5707,109;0,0826885;
5705,180;0,08179038;
5703,251;0,0808685;
5701,323;0,07986027;
5699,394;0,07884461;
5697,465;0,07779512;
5695,536;0,07674044;
5693,608;0,07575125;
5691,679;0,07480156;
5689,750;0,0738707;
5687,821;0,07297254;
5685,893;0,07207333;
5683,964;0,07115619;
5682,035;0,07027394;
5680,107;0,06938509;
5678,178;0,06841283;
5676,249;0,06745905;
5674,320;0,06666478;
5672,392;0,06600221;
5670,463;0,06530397;
5668,534;0,06450769;
5666,605;0,06372512;
5664,677;0,06298383;
5662,748;0,06225139;
5660,819;0,06154323;
5658,891;0,06081735;
5656,962;0,06007232;
5655,033;0,05934128;
5653,104;0,05860557;
5651,176;0,05796631;
5649,247;0,0574621;
5647,318;0,05689891;
5645,389;0,05627783;
5643,461;0,05578823;
5641,532;0,0553727;
5639,603;0,05486349;
5637,675;0,054273;
5635,746;0,05373396;
5633,817;0,05335345;
5631,888;0,05304006;
5629,960;0,05260899;
5628,031;0,05208628;
5626,102;0,05156939;
5624,173;0,05109989;
5622,245;0,05074974;
5620,316;0,05048749;
5618,387;0,05020776;
5616,459;0,04989005;
5614,530;0,04955386;
5612,601;0,04920351;
5610,672;0,04886045;
5608,744;0,04856626;
5606,815;0,04829598;
5604,886;0,04800885;
5602,957;0,04769164;
5601,029;0,04727529;
5599,100;0,04679464;
5597,171;0,04643455;
5595,242;0,04627571;
5593,314;0,04624409;
5591,385;0,04620297;
5589,456;0,04607619;
5587,528;0,04589082;
5585,599;0,04564115;
5583,670;0,0453522;
5581,741;0,04513915;
5579,813;0,04499612;
5577,884;0,04481645;
5575,955;0,0446103;
5574,026;0,04447203;
5572,098;0,04444233;
5570,169;0,04444913;
5568,240;0,0443533;
5566,312;0,04417218;
5564,383;0,0440569;
5562,454;0,04399319;
5560,525;0,04389034;
5558,597;0,04379527;
5556,668;0,04376456;
5554,739;0,04375601;
5552,810;0,04373229;
5550,882;0,04369033;
5548,953;0,04361092;
5547,024;0,04353856;
5545,096;0,04357866;
5543,167;0,04368879;
5541,238;0,04371228;
5539,309;0,04367782;
5537,381;0,04369364;
5535,452;0,04373139;
5533,523;0,04378243;
5531,594;0,04383984;
5529,666;0,04388031;
5527,737;0,04396771;
5525,808;0,04409844;
5523,880;0,04420066;
5521,951;0,04426606;
5520,022;0,04433168;
5518,093;0,04445348;
5516,165;0,04461939;
5514,236;0,04473327;
5512,307;0,04477381;
5510,378;0,04483101;
5508,450;0,04497264;
5506,521;0,04520492;
5504,592;0,0455231;
5502,663;0,04586928;
5500,735;0,04611903;
5498,806;0,04627814;
5496,877;0,0464879;
5494,949;0,04673734;
5493,020;0,04693726;
5491,091;0,04713393;
5489,162;0,04739473;
5487,234;0,0477164;
5485,305;0,04805316;
5483,376;0,0483598;
5481,447;0,04863662;
5479,519;0,04887635;
5477,590;0,04906177;
5475,661;0,04930946;
5473,733;0,04977996;
5471,804;0,0503633;
5469,875;0,05083205;
5467,946;0,05120394;
5466,018;0,05159181;
5464,089;0,05196938;
5462,160;0,05231982;
5460,231;0,05275164;
5458,303;0,05332077;
5456,374;0,05393291;
5454,445;0,05447052;
5452,517;0,05488496;
5450,588;0,05523922;
5448,659;0,05564996;
5446,730;0,05615259;
5444,802;0,05673779;
5442,873;0,05741245;
5440,944;0,05816915;
5439,015;0,05891453;
5437,087;0,05951226;
5435,158;0,06005412;
5433,229;0,06070429;
5431,301;0,06137175;
5429,372;0,06210454;
5427,443;0,06308547;
5425,514;0,06411272;
5423,586;0,06497589;
5421,657;0,06578386;
5419,728;0,0666412;
5417,799;0,06748571;
5415,871;0,0681897;
5413,942;0,06889623;
5412,013;0,06983662;
5410,085;0,07092236;
5408,156;0,07201179;
5406,227;0,07304244;
5404,298;0,07410026;
5402,370;0,07536852;
5400,441;0,07670109;
5398,512;0,07779806;
5396,583;0,07866205;
5394,655;0,07961292;
5392,726;0,08093987;
5390,797;0,08248182;
5388,868;0,0838112;
5386,940;0,08493833;
5385,011;0,08622713;
5383,082;0,08765275;
5381,154;0,08897641;
5379,225;0,0901787;
5377,296;0,09138294;
5375,367;0,09280748;
5373,439;0,09450948;
5371,510;0,09628216;
5369,581;0,09795697;
5367,652;0,09950495;
5365,724;0,1009612;
5363,795;0,1024463;
5361,866;0,1040579;
5359,938;0,1056924;
5358,009;0,1071797;
5356,080;0,1084968;
5354,151;0,1099148;
5352,223;0,1116737;
5350,294;0,1135299;
5348,365;0,1151316;
5346,436;0,1164856;
5344,508;0,1180471;
5342,579;0,1199754;
5340,650;0,1216565;
5338,722;0,1231149;
5336,793;0,1250551;
5334,864;0,1272371;
5332,935;0,1290601;
5331,007;0,1306212;
5329,078;0,1322089;
5327,149;0,1339882;
5325,220;0,1359481;
5323,292;0,1378293;
5321,363;0,1395141;
5319,434;0,1411162;
5317,506;0,1427333;
5315,577;0,144426;
5313,648;0,1461797;
5311,719;0,1478246;
5309,791;0,1492184;
5307,862;0,15057;
5305,933;0,1521574;
5304,004;0,1537936;
5302,076;0,1552035;
5300,147;0,156473;
5298,218;0,1577284;
5296,290;0,1589817;
5294,361;0,1601961;
5292,432;0,1612555;
5290,503;0,1622698;
5288,575;0,1634268;
5286,646;0,164544;
5284,717;0,1655176;
5282,788;0,1664606;
5280,860;0,1673535;
5278,931;0,1682003;
5277,002;0,1690131;
5275,073;0,1697304;
5273,145;0,170299;
5271,216;0,1706829;
5269,287;0,1709528;
5267,359;0,1710706;
5265,430;0,1709635;
5263,501;0,1710258;
5261,572;0,1715735;
5259,644;0,1721538;
5257,715;0,1721836;
5255,786;0,1718391;
5253,857;0,1716908;
5251,929;0,1715296;
5250,000;0,1708893;
5248,071;0,1701703;
5246,143;0,1697939;
5244,214;0,1696194;
5242,285;0,1694164;
5240,356;0,1689856;
5238,428;0,1683004;
5236,499;0,1674505;
5234,570;0,166447;
5232,641;0,1653448;
5230,713;0,164252;
5228,784;0,1630698;
5226,855;0,1616889;
5224,927;0,160415;
5222,998;0,1593989;
5221,069;0,1582962;
5219,140;0,1569399;
5217,212;0,1554943;
5215,283;0,1540852;
5213,354;0,1526099;
5211,425;0,1508286;
5209,497;0,1487246;
5207,568;0,1467328;
5205,639;0,1452394;
5203,711;0,1439397;
5201,782;0,1423358;
5199,853;0,1404209;
5197,924;0,1384703;
5195,996;0,1366711;
5194,067;0,1349521;
5192,138;0,1331395;
5190,209;0,1312364;
5188,281;0,1292996;
5186,352;0,1273507;
5184,423;0,1254704;
5182,495;0,1236507;
5180,566;0,121807;
5178,637;0,1199635;
5176,708;0,1181481;
5174,780;0,1163202;
5172,851;0,1144409;
5170,922;0,1125129;
5168,993;0,1106269;
5167,065;0,108809;
5165,136;0,106959;
5163,207;0,1051095;
5161,278;0,103361;
5159,350;0,1016419;
5157,421;0,09988235;
5155,492;0,09815781;
5153,564;0,09652615;
5151,635;0,09492894;
5149,706;0,09330921;
5147,777;0,09169123;
5145,849;0,09010195;
5143,920;0,08854086;
5141,991;0,08699999;
5140,062;0,08549405;
5138,134;0,08404157;
5136,205;0,0826052;
5134,276;0,08115825;
5132,348;0,07970541;
5130,419;0,07825916;
5128,490;0,07688277;
5126,561;0,07561783;
5124,633;0,07439829;
5122,704;0,07314391;
5120,775;0,07186043;
5118,846;0,07059008;
5116,918;0,06937865;
5114,989;0,06826892;
5113,060;0,06721517;
5111,132;0,06613211;
5109,203;0,06503998;
5107,274;0,06399268;
5105,345;0,06299365;
5103,417;0,06204956;
5101,488;0,06112752;
5099,559;0,06019839;
5097,630;0,0593113;
5095,702;0,05846662;
5093,773;0,05760963;
5091,844;0,05674738;
5089,916;0,05593339;
5087,987;0,05514514;
5086,058;0,05431913;
5084,129;0,05351309;
5082,201;0,05281586;
5080,272;0,05218798;
5078,343;0,05152064;
5076,414;0,05080053;
5074,486;0,05012159;
5072,557;0,04951939;
5070,628;0,04895693;
5068,700;0,04840571;
5066,771;0,04785114;
5064,842;0,04729824;
5062,913;0,04674975;
5060,985;0,04617979;
5059,056;0,04560793;
5057,127;0,04512202;
5055,198;0,04472678;
5053,270;0,04432811;
5051,341;0,04387164;
5049,412;0,04338208;
5047,483;0,04291398;
5045,555;0,04247376;
5043,626;0,04203382;
5041,697;0,04159638;
5039,769;0,04117863;
5037,840;0,04079953;
5035,911;0,04049011;
5033,982;0,04022483;
5032,054;0,03992244;
5030,125;0,03958998;
5028,196;0,03927633;
5026,267;0,03897573;
5024,339;0,0387046;
5022,410;0,03846206;
5020,481;0,03817331;
5018,553;0,03785073;
5016,624;0,03761438;
5014,695;0,03743925;
5012,766;0,03720457;
5010,838;0,0369397;
5008,909;0,03672633;
5006,980;0,03655706;
5005,051;0,03640072;
5003,123;0,03625044;
5001,194;0,03608545;
4999,265;0,03588753;
4997,337;0,03569984;
4995,408;0,03556558;
4993,479;0,03544775;
4991,550;0,03529594;
4989,622;0,03513769;
4987,693;0,03500704;
4985,764;0,03487236;
4983,835;0,03472687;
4981,907;0,03463423;
4979,978;0,0346099;
4978,049;0,03455927;
4976,121;0,03443931;
4974,192;0,03432601;
4972,263;0,03425452;
4970,334;0,03417769;
4968,406;0,03408446;
4966,477;0,03403326;
4964,548;0,03406082;
4962,619;0,0341191;
4960,691;0,03413286;
4958,762;0,03410606;
4956,833;0,03408528;
4954,904;0,03407527;
4952,976;0,03406473;
4951,047;0,03405374;
4949,118;0,03407249;
4947,190;0,03412551;
4945,261;0,03417201;
4943,332;0,03420964;
4941,403;0,0342476;
4939,475;0,03430498;
4937,546;0,0344104;
4935,617;0,03452411;
4933,688;0,03457978;
4931,760;0,03459129;
4929,831;0,03463481;
4927,902;0,03472793;
4925,974;0,03484975;
4924,045;0,03497904;
4922,116;0,03507456;
4920,187;0,03518157;
4918,259;0,03534606;
4916,330;0,03547913;
4914,401;0,03557719;
4912,472;0,03576001;
4910,544;0,03602339;
4908,615;0,03628027;
4906,686;0,03649734;
4904,758;0,03666532;
4902,829;0,03681897;
4900,900;0,03700678;
4898,971;0,03719578;
4897,043;0,03737339;
4895,114;0,03761404;
4893,185;0,0379332;
4891,256;0,03827443;
4889,328;0,03859894;
4887,399;0,03887644;
4885,470;0,03909982;
4883,542;0,03929973;
4881,613;0,0395316;
4879,684;0,03985579;
4877,755;0,04026578;
4875,827;0,04068666;
4873,898;0,04106805;
4871,969;0,0414265;
4870,040;0,0417886;
4868,112;0,04217247;
4866,183;0,04260464;
4864,254;0,04305297;
4862,326;0,04346959;
4860,397;0,04388572;
4858,468;0,04433161;
4856,539;0,04483157;
4854,611;0,0454278;
4852,682;0,04605147;
4850,753;0,04660432;
4848,824;0,04712931;
4846,896;0,04769073;
4844,967;0,04828336;
4843,038;0,04888805;
4841,109;0,04950787;
4839,181;0,05017434;
4837,252;0,05088539;
4835,323;0,05161086;
4833,395;0,05233089;
4831,466;0,05306106;
4829,537;0,05386305;
4827,608;0,05471363;
4825,680;0,05555231;
4823,751;0,05641651;
4821,822;0,05732789;
4819,893;0,05826599;
4817,965;0,05920831;
4816,036;0,06013509;
4814,107;0,06110086;
4812,179;0,06215225;
4810,250;0,06323256;
4808,321;0,06430661;
4806,392;0,06542776;
4804,464;0,06661657;
4802,535;0,06782184;
4800,606;0,06902646;
4798,677;0,07027523;
4796,749;0,07159334;
4794,820;0,07295215;
4792,891;0,07432674;
4790,963;0,07571977;
4789,034;0,07713314;
4787,105;0,0785744;
4785,176;0,08005133;
4783,248;0,08157045;
4781,319;0,08315168;
4779,390;0,08479236;
4777,461;0,08647641;
4775,533;0,08821478;
4773,604;0,08998565;
4771,675;0,09173408;
4769,747;0,0934777;
4767,818;0,09526904;
4765,889;0,09710298;
4763,960;0,0989483;
4762,032;0,1007951;
4760,103;0,1026604;
4758,174;0,1045437;
4756,245;0,1064387;
4754,317;0,1083895;
4752,388;0,1104049;
4750,459;0,1124243;
4748,531;0,114425;
4746,602;0,1164189;
4744,673;0,1184186;
4742,744;0,1204337;
4740,816;0,1224459;
4738,887;0,1244667;
4736,958;0,1265335;
4735,029;0,1286013;
4733,101;0,1305976;
4731,172;0,1325564;
4729,243;0,1345549;
4727,314;0,136559;
4725,386;0,1384911;
4723,457;0,1403834;
4721,528;0,1422851;
4719,600;0,1441861;
4717,671;0,1460699;
4715,742;0,1479027;
4713,813;0,149686;
4711,885;0,1514626;
4709,956;0,1532177;
4708,027;0,1549183;
4706,098;0,1565797;
4704,170;0,1582233;
4702,241;0,1598034;
4700,312;0,1612247;
4698,384;0,1624591;
4696,455;0,1635722;
4694,526;0,1646336;
4692,597;0,1656406;
4690,669;0,1665245;
4688,740;0,1672532;
4686,811;0,1679089;
4684,882;0,1685721;
4682,954;0,1691854;
4681,025;0,1696742;
4679,096;0,1700661;
4677,168;0,1703976;
4675,239;0,1706727;
4673,310;0,1708875;
4671,381;0,171021;
4669,453;0,1710829;
4667,524;0,1710974;
4665,595;0,1710289;
4663,666;0,1708601;
4661,738;0,1706321;
4659,809;0,170318;
4657,880;0,1698299;
4655,952;0,1691707;
4654,023;0,168414;
4652,094;0,1675786;
4650,165;0,166634;
4648,237;0,165538;
4646,308;0,1642846;
4644,379;0,1629413;
4642,450;0,1615611;
4640,522;0,1601156;
4638,593;0,1585487;
4636,664;0,1568724;
4634,736;0,155132;
4632,807;0,1533034;
4630,878;0,151372;
4628,949;0,1493798;
4627,021;0,1473383;
4625,092;0,1452349;
4623,163;0,1430919;
4621,234;0,1409305;
4619,306;0,1387323;
4617,377;0,1364882;
4615,448;0,1342106;
4613,519;0,131923;
4611,591;0,1296379;
4609,662;0,1273458;
4607,733;0,1250658;
4605,805;0,1227943;
4603,876;0,1204931;
4601,947;0,118182;
4600,018;0,1159074;
4598,090;0,1136772;
4596,161;0,1114597;
4594,232;0,1092432;
4592,303;0,1070605;
4590,375;0,104915;
4588,446;0,1027732;
4586,517;0,1006107;
4584,589;0,09843022;
4582,660;0,09628722;
4580,731;0,09422722;
4578,802;0,09220719;
4576,874;0,09019048;
4574,945;0,0882057;
4573,016;0,08628661;
4571,087;0,08442254;
4569,159;0,08257124;
4567,230;0,08075776;
4565,301;0,0790173;
4563,373;0,0773182;
4561,444;0,07566445;
4559,515;0,07406063;
4557,586;0,07245336;
4555,658;0,07084252;
4553,729;0,06929649;
4551,800;0,06781876;
4549,871;0,06635667;
4547,943;0,06492022;
4546,014;0,06354332;
4544,085;0,06222382;
4542,157;0,06095407;
4540,228;0,05971939;
4538,299;0,05848824;
4536,370;0,05727436;
4534,442;0,05612405;
4532,513;0,05502853;
4530,584;0,05396936;
4528,655;0,05294221;
4526,727;0,05192288;
4524,798;0,05089737;
4522,869;0,04987869;
4520,940;0,04889746;
4519,012;0,04796248;
4517,083;0,04708021;
4515,154;0,04627891;
4513,226;0,04552711;
4511,297;0,04474905;
4509,368;0,04393257;
4507,439;0,04312692;
4505,511;0,04237906;
4503,582;0,04171372;
4501,653;0,04112276;
4499,724;0,04055751;
4497,796;0,03994481;
4495,867;0,03926797;
4493,938;0,03861288;
4492,010;0,03804369;
4490,081;0,03753022;
4488,152;0,03701244;
4486,223;0,03646472;
4484,295;0,03591432;
4482,366;0,03539672;
4480,437;0,03491866;
4478,508;0,03445491;
4476,580;0,03399459;
4474,651;0,03355816;
4472,722;0,03313711;
4470,794;0,03272898;
4468,865;0,03235612;
4466,936;0,03198176;
4465,007;0,03157684;
4463,079;0,03120596;
4461,150;0,0308889;
4459,221;0,03056398;
4457,292;0,03023695;
4455,364;0,02996266;
4453,435;0,02972537;
4451,506;0,02946247;
4449,578;0,02915954;
4447,649;0,02885056;
4445,720;0,0285602;
4443,791;0,0282876;
4441,863;0,02803729;
4439,934;0,02782342;
4438,005;0,02761993;
4436,076;0,02740715;
4434,148;0,02720789;
4432,219;0,02701517;
4430,290;0,0268144;
4428,362;0,02662591;
4426,433;0,0264478;
4424,504;0,02624069;
4422,575;0,02602305;
4420,647;0,02586851;
4418,718;0,02576578;
4416,789;0,02564185;
4414,860;0,02548843;
4412,932;0,02533066;
4411,003;0,02517438;
4409,074;0,02504828;
4407,145;0,02496394;
4405,217;0,02485672;
4403,288;0,02469597;
4401,359;0,02457967;
4399,431;0,02457758;
4397,502;0,02457754;
4395,573;0,02448436;
4393,644;0,02435828;
4391,716;0,02425144;
4389,787;0,02416042;
4387,858;0,02407829;
4385,929;0,02401284;
4384,001;0,02395027;
4382,072;0,02383657;
4380,143;0,02370499;
4378,215;0,02365229;
4376,286;0,02367611;
4374,357;0,02370461;
4372,428;0,02370367;
4370,500;0,02367181;
4368,571;0,02363322;
4366,642;0,0236361;
4364,713;0,02365513;
4362,785;0,02363437;
4360,856;0,02362558;
4358,927;0,02368352;
4356,999;0,02375247;
4355,070;0,02379278;
4353,141;0,02383983;
4351,212;0,02388239;
4349,284;0,02388765;
4347,355;0,0238883;
4345,426;0,02391673;
4343,497;0,023992;
4341,569;0,02411037;
4339,640;0,02420309;
4337,711;0,02426028;
4335,783;0,0243496;
4333,854;0,02444953;
4331,925;0,02449742;
4329,996;0,02452273;
4328,068;0,02458955;
4326,139;0,02471621;
4324,210;0,02487324;
4322,281;0,0250144;
4320,353;0,02509938;
4318,424;0,02514494;
4316,495;0,0252315;
4314,567;0,02538532;
4312,638;0,02556843;
4310,709;0,02575132;
4308,780;0,02592572;
4306,852;0,02612284;
4304,923;0,02634204;
4302,994;0,02652484;
4301,065;0,02668671;
4299,137;0,02687735;
4297,208;0,027073;
4295,279;0,02727161;
4293,350;0,02749854;
4291,422;0,02772253;
4289,493;0,02793739;
4287,564;0,02818253;
4285,636;0,02843972;
4283,707;0,02868112;
4281,778;0,02895181;
4279,849;0,02927349;
4277,921;0,02959166;
4275,992;0,0298663;
4274,063;0,03013217;
4272,134;0,03046015;
4270,206;0,03084609;
4268,277;0,03123104;
4266,348;0,03161614;
4264,420;0,03202331;
4262,491;0,03243556;
4260,562;0,03282378;
4258,633;0,03319317;
4256,705;0,03359787;
4254,776;0,0340585;
4252,847;0,03454806;
4250,918;0,03508673;
4248,990;0,03567978;
4247,061;0,03625116;
4245,132;0,03678793;
4243,204;0,03737046;
4241,275;0,03801753;
4239,346;0,03867434;
4237,417;0,03932386;
4235,489;0,03999262;
4233,560;0,04069512;
4231,631;0,04141761;
4229,702;0,04214767;
4227,774;0,04291123;
4225,845;0,043709;
4223,916;0,04451553;
4221,988;0,04535889;
4220,059;0,04625582;
4218,130;0,04717871;
4216,201;0,04811507;
4214,273;0,04907697;
4212,344;0,05007179;
4210,415;0,05109828;
4208,486;0,0521916;
4206,558;0,05337198;
4204,629;0,05458118;
4202,700;0,05578752;
4200,772;0,05704801;
4198,843;0,05840102;
4196,914;0,05980573;
4194,985;0,06120839;
4193,057;0,06261582;
4191,128;0,06409088;
4189,199;0,06566092;
4187,270;0,06729314;
4185,342;0,06894417;
4183,413;0,07057565;
4181,484;0,07221264;
4179,555;0,07393057;
4177,627;0,07572934;
4175,698;0,0775585;
4173,769;0,07941851;
4171,841;0,08133189;
4169,912;0,08330425;
4167,983;0,08532085;
4166,054;0,0873455;
4164,126;0,08937977;
4162,197;0,09146758;
4160,268;0,09360377;
4158,339;0,0957389;
4156,411;0,09786648;
4154,482;0,1000181;
4152,553;0,1022328;
4150,625;0,1045265;
4148,696;0,1068386;
4146,767;0,1091142;
4144,838;0,1113657;
4142,910;0,1136247;
4140,981;0,1159203;
4139,052;0,1182234;
4137,123;0,1204745;
4135,195;0,1226809;
4133,266;0,1248876;
4131,337;0,1270991;
4129,409;0,129269;
4127,480;0,131375;
4125,551;0,133443;
4123,622;0,135472;
4121,694;0,1374398;
4119,765;0,1393554;
4117,836;0,1412327;
4115,907;0,1430694;
4113,979;0,1448669;
4112,050;0,146596;
4110,121;0,1481907;
4108,193;0,1496285;
4106,264;0,1509703;
4104,335;0,1522731;
4102,406;0,1535025;
4100,478;0,1546099;
4098,549;0,1555964;
4096,620;0,1564599;
4094,691;0,157183;
4092,763;0,1577441;
4090,834;0,1581482;
4088,905;0,1584252;
4086,977;0,1585751;
4085,048;0,1585834;
4083,119;0,1584445;
4081,190;0,1581796;
4079,262;0,157835;
4077,333;0,157394;
4075,404;0,1567983;
4073,475;0,1560555;
4071,547;0,1551913;
4069,618;0,154181;
4067,689;0,1530003;
4065,760;0,1516589;
4063,832;0,1501663;
4061,903;0,1485132;
4059,974;0,1467079;
4058,046;0,1447783;
4056,117;0,1427442;
4054,188;0,1406248;
4052,259;0,1384238;
4050,331;0,136115;
4048,402;0,133697;
4046,473;0,1312325;
4044,544;0,1287909;
4042,616;0,1263746;
4040,687;0,1239384;
4038,758;0,121456;
4036,830;0,1189389;
4034,901;0,1163938;
4032,972;0,1138054;
4031,043;0,1111894;
4029,115;0,1085801;
4027,186;0,1059647;
4025,257;0,1033293;
4023,328;0,1007098;
4021,400;0,09815677;
4019,471;0,09568913;
4017,542;0,09326328;
4015,614;0,09083845;
4013,685;0,08844072;
4011,756;0,08609679;
4009,827;0,08378498;
4007,899;0,08150261;
4005,970;0,07930715;
4004,041;0,07720383;
4002,112;0,07512413;
4000,184;0,07306728;
3998,255;0,07105903;
3996,326;0,0690826;
3994,398;0,0671546;
3992,469;0,0652861;
3990,540;0,06346144;
3988,611;0,06167966;
3986,683;0,05993042;
3984,754;0,058231;
3982,825;0,0566316;
3980,896;0,05513281;
3978,968;0,05365704;
3977,039;0,05215098;
3975,110;0,05066176;
3973,181;0,04925006;
3971,253;0,0479575;
3969,324;0,04678133;
3967,395;0,04562862;
3965,467;0,04443541;
3963,538;0,04324884;
3961,609;0,04212224;
3959,680;0,04104747;
3957,752;0,04004675;
3955,823;0,03913523;
3953,894;0,03823438;
3951,965;0,03727105;
3950,037;0,03626506;
3948,108;0,03535111;
3946,179;0,0345884;
3944,251;0,0338651;
3942,322;0,03315238;
3940,393;0,03249705;
3938,464;0,03188642;
3936,536;0,03125871;
3934,607;0,03055116;
3932,678;0,02986429;
3930,749;0,02933927;
3928,821;0,02887007;
3926,892;0,02829457;
3924,963;0,02766413;
3923,035;0,02708692;
3921,106;0,02656049;
3919,177;0,02606031;
3917,248;0,02560694;
3915,320;0,02522359;
3913,391;0,02485776;
3911,462;0,02446304;
3909,533;0,02405094;
3907,605;0,02352905;
3905,676;0,02287148;
3903,747;0,02230099;
3901,819;0,02194934;
3899,890;0,02175497;
3897,961;0,02165752;
3896,032;0,02150045;
3894,104;0,02111539;
3892,175;0,02066726;
3890,246;0,02039902;
3888,317;0,02012934;
3886,389;0,01972807;
3884,460;0,01943602;
3882,531;0,01924354;
3880,603;0,0190501;
3878,674;0,01896122;
3876,745;0,01884371;
3874,816;0,01855046;
3872,888;0,01812266;
3870,959;0,01767322;
3869,030;0,01746055;
3867,101;0,01742966;
3865,173;0,01730738;
3863,244;0,01717535;
3861,315;0,01715055;
3859,386;0,01709086;
3857,458;0,0166938;
3855,529;0,01590197;
3853,600;0,01541692;
3851,672;0,01575607;
3849,743;0,01626968;
3847,814;0,01639407;
3845,885;0,01621983;
3843,957;0,01595971;
3842,028;0,01571164;
3840,099;0,01545419;
3838,170;0,01525522;
3836,242;0,01520683;
3834,313;0,01519151;
3832,384;0,01518214;
3830,456;0,0152448;
3828,527;0,01527788;
3826,598;0,01520843;
3824,669;0,01500868;
3822,741;0,0146859;
3820,812;0,01448495;
3818,883;0,01444008;
3816,954;0,01436786;
3815,026;0,01443887;
3813,097;0,01465642;
3811,168;0,01465658;
3809,240;0,01439867;
3807,311;0,01423191;
3805,382;0,01425511;
3803,453;0,01414875;
3801,525;0,0139726;
3799,596;0,0140231;
3797,667;0,01412759;
3795,738;0,01415822;
3793,810;0,01423345;
3791,881;0,01436149;
3789,952;0,01446996;
3788,024;0,01447609;
3786,095;0,01440183;
3784,166;0,01437255;
3782,237;0,01435665;
3780,309;0,01427925;
3778,380;0,01426786;
3776,451;0,01437345;
3774,522;0,01441848;
3772,594;0,01427342;
3770,665;0,01406068;
3768,736;0,01405537;
3766,808;0,01424611;
3764,879;0,01435946;
3762,950;0,01430694;
3761,021;0,01418911;
3759,093;0,01414494;
3757,164;0,01419928;
3755,235;0,01416866;
3753,306;0,01393576;
3751,378;0,01372029;
3749,449;0,01377531;
3747,520;0,01386802;
3745,591;0,01381549;
3743,663;0,01398017;
3741,734;0,01439289;
3739,805;0,01457465;
3737,877;0,01445923;
3735,948;0,01436699;
3734,019;0,01446983;
3732,090;0,01472808;
3730,162;0,01502099;
3728,233;0,01520816;
3726,304;0,01529492;
3724,375;0,01541083;
3722,447;0,01558799;
3720,518;0,01577802;
3718,589;0,01593708;
3716,661;0,01601312;
3714,732;0,0159526;
3712,803;0,01584168;
3710,874;0,01593013;
3708,946;0,01626284;
3707,017;0,01664357;
3705,088;0,01690578;
3703,159;0,0170371;
3701,231;0,01719471;
3699,302;0,01742897;
3697,373;0,01762963;
3695,445;0,01774566;
3693,516;0,01775921;
3691,587;0,0176702;
3689,658;0,01766765;
3687,730;0,01802695;
3685,801;0,01863067;
3683,872;0,01910295;
3681,943;0,01934444;
3680,015;0,01942144;
3678,086;0,01930634;
3676,157;0,01923595;
3674,229;0,01956582;
3672,300;0,0200185;
3670,371;0,02040059;
3668,442;0,0210093;
3666,514;0,02174136;
3664,585;0,022293;
3662,656;0,02267307;
3660,727;0,02296226;
3658,799;0,02316115;
3656,870;0,023406;
3654,941;0,02382753;
3653,013;0,02410633;
3651,084;0,02409346;
3649,155;0,02432571;
3647,226;0,02514586;
3645,298;0,02618846;
3643,369;0,0270514;
3641,440;0,02770885;
3639,511;0,02828477;
3637,583;0,02881997;
3635,654;0,02933428;
3633,725;0,02978708;
3631,796;0,02997503;
3629,868;0,03010579;
3627,939;0,03088553;
3626,010;0,03221421;
3624,082;0,03330053;
3622,153;0,03389235;
3620,224;0,034346;
3618,295;0,03512485;
3616,367;0,03614589;
3614,438;0,03703842;
3612,509;0,03786127;
3610,580;0,03880135;
3608,652;0,0399467;
3606,723;0,04132878;
3604,794;0,04274227;
3602,866;0,04400671;
3600,937;0,04520316;
3599,008;0,0464218;
3597,079;0,04764924;
3595,151;0,04894844;
3593,222;0,05036349;
3591,293;0,05166687;
3589,364;0,0527695;
3587,436;0,05415352;
3585,507;0,05612028;
3583,578;0,0582372;
3581,650;0,06013962;
3579,721;0,0619289;
3577,792;0,06373483;
3575,863;0,0655549;
3573,935;0,06738019;
3572,006;0,06907816;
3570,077;0,07041376;
3568,148;0,07169784;
3566,220;0,07363605;
3564,291;0,076127;
3562,362;0,07851792;
3560,434;0,08068467;
3558,505;0,08279792;
3556,576;0,08479163;
3554,647;0,08657331;
3552,719;0,08831976;
3550,790;0,0901553;
3548,861;0,09187273;
3546,932;0,09347975;
3545,004;0,09530918;
3543,075;0,09732975;
3541,146;0,0991885;
3539,217;0,1007574;
3537,289;0,1021938;
3535,360;0,103639;
3533,431;0,1049907;
3531,503;0,1061;
3529,574;0,1070473;
3527,645;0,1079991;
3525,716;0,1089483;
3523,788;0,109846;
3521,859;0,1107271;
3519,930;0,1115226;
3518,001;0,1121357;
3516,073;0,1125923;
3514,144;0,1128882;
3512,215;0,1129685;
3510,287;0,1129187;
3508,358;0,1128657;
3506,429;0,1126874;
3504,500;0,1122928;
3502,572;0,1118895;
3500,643;0,1115197;
3498,714;0,1109472;
3496,785;0,1101173;
3494,857;0,109161;
3492,928;0,1080965;
3490,999;0,1068514;
3489,071;0,1054304;
3487,142;0,1038997;
3485,213;0,1022581;
3483,284;0,1004918;
3481,356;0,09868954;
3479,427;0,09689063;
3477,498;0,09501025;
3475,569;0,09300432;
3473,641;0,09091488;
3471,712;0,08879198;
3469,783;0,08664495;
3467,855;0,08445875;
3465,926;0,08222362;
3463,997;0,07995332;
3462,068;0,07769984;
3460,140;0,07548761;
3458,211;0,07328176;
3456,282;0,07106808;
3454,353;0,06886463;
3452,425;0,06667379;
3450,496;0,06447795;
3448,567;0,06229511;
3446,639;0,06020822;
3444,710;0,0582358;
3442,781;0,05630692;
3440,852;0,05440945;
3438,924;0,05255822;
3436,995;0,050724;
3435,066;0,04889785;
3433,137;0,04711425;
3431,209;0,04541347;
3429,280;0,04380095;
3427,351;0,04224034;
3425,422;0,04070787;
3423,494;0,0392257;
3421,565;0,03781962;
3419,636;0,03649973;
3417,708;0,03527086;
3415,779;0,03412608;
3413,850;0,03307781;
3411,921;0,03215401;
3409,993;0,03133947;
3408,064;0,03059308;
3406,135;0,02990115;
3404,206;0,0292719;
3402,278;0,02869992;
3400,349;0,02814957;
3398,420;0,02758344;
3396,492;0,02700253;
3394,563;0,02642575;
3392,634;0,0258448;
3390,705;0,02524333;
3388,777;0,02463946;
3386,848;0,02403809;
3384,919;0,0234114;
3382,990;0,02278529;
3381,062;0,02220546;
3379,133;0,02165908;
3377,204;0,02112828;
3375,276;0,02061279;
3373,347;0,02011287;
3371,418;0,0196428;
3369,489;0,01920349;
3367,561;0,01877445;
3365,632;0,01835793;
3363,703;0,01796761;
3361,774;0,01761019;
3359,846;0,01727971;
3357,917;0,01694119;
3355,988;0,01658555;
3354,060;0,01623562;
3352,131;0,01589509;
3350,202;0,01558213;
3348,273;0,01532485;
3346,345;0,01509362;
3344,416;0,01482857;
3342,487;0,0145288;
3340,558;0,01424444;
3338,630;0,01401285;
3336,701;0,01382785;
3334,772;0,01363543;
3332,844;0,01340558;
3330,915;0,01317262;
3328,986;0,01295146;
3327,057;0,01272034;
3325,129;0,01249666;
3323,200;0,01230781;
3321,271;0,01212898;
3319,342;0,011946;
3317,414;0,01178073;
3315,485;0,01162569;
3313,556;0,01144219;
3311,627;0,01122057;
3309,699;0,0110107;
3307,770;0,01085998;
3305,841;0,01075954;
3303,913;0,01067115;
3301,984;0,0105571;
3300,055;0,01041111;
3298,126;0,01025971;
3296,198;0,01012007;
3294,269;0,009979912;
3292,340;0,009835685;
3290,411;0,009726223;
3288,483;0,009659658;
3286,554;0,009588942;
3284,625;0,009496756;
3282,697;0,009400303;
3280,768;0,009309756;
3278,839;0,009220215;
3276,910;0,009122421;
3274,982;0,009017501;
3273,053;0,008922272;
3271,124;0,008856215;
3269,195;0,008809239;
3267,267;0,008764717;
3265,338;0,00872403;
3263,409;0,008665945;
3261,481;0,008566881;
3259,552;0,008459288;
3257,623;0,008391639;
3255,694;0,008360974;
3253,766;0,008340319;
3251,837;0,008312855;
3249,908;0,00825985;
3247,979;0,008186713;
3246,051;0,008130976;
3244,122;0,008107306;
3242,193;0,008084593;
3240,265;0,008035147;
3238,336;0,007970567;
3236,407;0,007916187;
3234,478;0,007883742;
3232,550;0,007867285;
3230,621;0,007853915;
3228,692;0,007835899;
3226,763;0,007816345;
3224,835;0,007798295;
3222,906;0,007766756;
3220,977;0,007724596;
3219,049;0,007699046;
3217,120;0,007688553;
3215,191;0,007668243;
3213,262;0,007638145;
3211,334;0,007624655;
3209,405;0,007631871;
3207,476;0,007642787;
3205,547;0,007653474;
3203,619;0,007657061;
3201,690;0,007650276;
3199,761;0,007649726;
3197,832;0,007657779;
3195,904;0,00765832;
3193,975;0,007654831;
3192,046;0,007661665;
3190,118;0,007674881;
3188,189;0,007680109;
3186,260;0,007671824;
3184,331;0,007666431;
3182,403;0,007676942;
3180,474;0,007710633;
3178,545;0,00777685;
3176,616;0,007840183;
3174,688;0,007870968;
3172,759;0,007892949;
3170,830;0,007913587;
3168,902;0,007930268;
3166,973;0,007961662;
3165,044;0,008006103;
3163,115;0,008040204;
3161,187;0,008074407;
3159,258;0,008140279;
3157,329;0,008217718;
3155,400;0,008257211;
3153,472;0,008274463;
3151,543;0,008326367;
3149,614;0,008405091;
3147,686;0,008469136;
3145,757;0,008520376;
3143,828;0,008570966;
3141,899;0,0086265;
3139,971;0,008696377;
3138,042;0,008773766;
3136,113;0,008849001;
3134,184;0,008923321;
3132,256;0,008993222;
3130,327;0,009067456;
3128,398;0,009164356;
3126,470;0,009275036;
3124,541;0,009388102;
3122,612;0,009511221;
3120,683;0,009632614;
3118,755;0,009727931;
3116,826;0,009823013;
3114,897;0,009957253;
3112,968;0,01011021;
3111,040;0,01025833;
3109,111;0,01040747;
3107,182;0,01055667;
3105,253;0,01071726;
3103,325;0,01090329;
3101,396;0,01108608;
3099,467;0,01124622;
3097,539;0,01142434;
3095,610;0,01163836;
3093,681;0,01185907;
3091,752;0,01208823;
3089,824;0,01234228;
3087,895;0,01260201;
3085,966;0,01285717;
3084,037;0,01313261;
3082,109;0,01342711;
3080,180;0,01372982;
3078,251;0,01406226;
3076,323;0,01442497;
3074,394;0,01479735;
3072,465;0,01517952;
3070,536;0,01558281;
3068,608;0,01601205;
3066,679;0,01646218;
3064,750;0,01693401;
3062,821;0,01744306;
3060,893;0,01799743;
3058,964;0,01858712;
3057,035;0,01920212;
3055,107;0,01983681;
3053,178;0,02050235;
3051,249;0,02123221;
3049,320;0,02204389;
3047,392;0,02293142;
3045,463;0,02388825;
3043,534;0,02490943;
3041,605;0,02599866;
3039,677;0,02718599;
3037,748;0,02849254;
3035,819;0,02987441;
3033,891;0,03128517;
3031,962;0,0327647;
3030,033;0,03437806;
3028,104;0,03612291;
3026,176;0,03796552;
3024,247;0,0399109;
3022,318;0,04198351;
3020,389;0,0441808;
3018,461;0,04649314;
3016,532;0,048924;
3014,603;0,0514442;
3012,675;0,05400671;
3010,746;0,05660032;
3008,817;0,05919481;
3006,888;0,06169701;
3004,960;0,06401002;
3003,031;0,06607143;
3001,102;0,06781012;
2999,173;0,06910894;
2997,245;0,06983531;
2995,316;0,06986532;
2993,387;0,06907546;
2991,458;0,06736334;
2989,530;0,06468482;
2987,601;0,06107559;
2985,672;0,05664566;
2983,744;0,05154505;
2981,815;0,04596827;
2979,886;0,04018934;
2977,957;0,03451384;
2976,029;0,02918843;
2974,100;0,02438192;
2972,171;0,02020487;
2970,242;0,01669858;
2968,314;0,01383124;
2966,385;0,01153644;
2964,456;0,009741595;
2962,528;0,008362365;
2960,599;0,007301991;
2958,670;0,006484688;
2956,741;0,005872361;
2954,813;0,005406776;
2952,884;0,004991238;
2950,955;0,004575104;
2949,026;0,004166154;
2947,098;0,003770079;
2945,169;0,003405686;
2943,240;0,003116557;
2941,312;0,002919032;
2939,383;0,002797615;
2937,454;0,002756207;
2935,525;0,002815641;
2933,597;0,002978012;
2931,668;0,00324331;
2929,739;0,003624412;
2927,810;0,004121645;
2925,882;0,004723286;
2923,953;0,005429608;
2922,024;0,006248943;
2920,096;0,007186443;
2918,167;0,008264576;
2916,238;0,00951315;
2914,309;0,01089163;
2912,381;0,01227233;
2910,452;0,01355233;
2908,523;0,01472053;
2906,594;0,01582607;
2904,666;0,01694502;
2902,737;0,01812556;
2900,808;0,0193591;
2898,880;0,02059728;
2896,951;0,02177598;
2895,022;0,02285075;
2893,093;0,02378456;
2891,165;0,02452725;
2889,236;0,02500647;
2887,307;0,02510663;
2885,378;0,02471896;
2883,450;0,02382279;
2881,521;0,02249281;
2879,592;0,02084667;
2877,663;0,01897859;
2875,735;0,01694937;
2873,806;0,01485532;
2871,877;0,01284759;
2869,949;0,01107315;
2868,020;0,009645467;
2866,091;0,008666708;
2864,162;0,008219349;
2862,234;0,008317365;
2860,305;0,008958186;
2858,376;0,01019745;
2856,447;0,01212092;
2854,519;0,01482763;
2852,590;0,01840521;
2850,661;0,02282926;
2848,733;0,02786237;
2846,804;0,03306689;
2844,875;0,03793079;
2842,946;0,04198183;
2841,018;0,04488503;
2839,089;0,04652422;
2837,160;0,04698941;
2835,231;0,04651436;
2833,303;0,04543252;
2831,374;0,04409199;
2829,445;0,04276472;
2827,517;0,04161387;
2825,588;0,04067676;
2823,659;0,03989888;
2821,730;0,0391621;
2819,802;0,03830886;
2817,873;0,0372476;
2815,944;0,03596716;
2814,015;0,03448039;
2812,087;0,03286157;
2810,158;0,03122388;
2808,229;0,029612;
2806,301;0,02802105;
2804,372;0,02647499;
2802,443;0,02500738;
2800,514;0,02363702;
2798,586;0,02239426;
2796,657;0,02131729;
2794,728;0,02039809;
2792,799;0,01955861;
2790,871;0,01871378;
2788,942;0,01785159;
2787,013;0,0170192;
2785,085;0,01623642;
2783,156;0,01549423;
2781,227;0,01480291;
2779,298;0,01416943;
2777,370;0,01358518;
2775,441;0,01303664;
2773,512;0,01251656;
2771,583;0,01204416;
2769,655;0,01162994;
2767,726;0,0112464;
2765,797;0,01086141;
2763,868;0,01047529;
2761,940;0,01012182;
2760,011;0,009809958;
2758,082;0,009510339;
2756,154;0,009209497;
2754,225;0,008914583;
2752,296;0,008641914;
2750,367;0,008406281;
2748,439;0,008197659;
2746,510;0,007988075;
2744,581;0,007771125;
2742,652;0,007566699;
2740,724;0,007370559;
2738,795;0,007172095;
2736,866;0,00698779;
2734,938;0,006830884;
2733,009;0,006704036;
2731,080;0,006584093;
2729,151;0,006440208;
2727,223;0,006282262;
2725,294;0,00612938;
2723,365;0,005991766;
2721,436;0,005880735;
2719,508;0,00579324;
2717,579;0,005712445;
2715,650;0,005616352;
2713,722;0,005507089;
2711,793;0,00540542;
2709,864;0,005307152;
2707,935;0,005208358;
2706,007;0,005114183;
2704,078;0,00501698;
2702,149;0,004927505;
2700,220;0,004867194;
2698,292;0,004821007;
2696,363;0,004753466;
2694,434;0,004663585;
2692,506;0,004578904;
2690,577;0,004504237;
2688,648;0,0044292;
2686,719;0,004360239;
2684,791;0,004315542;
2682,862;0,004293772;
2680,933;0,00426356;
2679,004;0,004206035;
2677,076;0,004141931;
2675,147;0,004096591;
2673,218;0,004061744;
2671,290;0,004014149;
2669,361;0,003955285;
2667,432;0,003911635;
2665,503;0,003901988;
2663,575;0,003912638;
2661,646;0,003912136;
2659,717;0,003882509;
2657,788;0,003840018;
2655,860;0,003808958;
2653,931;0,003779819;
2652,002;0,003737173;
2650,073;0,003691501;
2648,145;0,003663167;
2646,216;0,00364863;
2644,287;0,003626504;
2642,359;0,003591077;
2640,430;0,003549376;
2638,501;0,003513854;
2636,572;0,003503133;
2634,644;0,003517705;
2632,715;0,003535416;
2630,786;0,003547665;
2628,857;0,003550995;
2626,929;0,003531469;
2625,000;0,003497959;
2623,071;0,003465152;
2621,143;0,003432062;
2619,214;0,003402986;
2617,285;0,003375458;
2615,356;0,003352805;
2613,428;0,003354174;
2611,499;0,003368038;
2609,570;0,003374731;
2607,641;0,003400687;
2605,713;0,003439077;
2603,784;0,003426231;
2601,855;0,003375533;
2599,927;0,003346371;
2597,998;0,003333213;
2596,069;0,003320787;
2594,140;0,003310393;
2592,212;0,003305827;
2590,283;0,003329993;
2588,354;0,003369116;
2586,425;0,003385361;
2584,497;0,003384035;
2582,568;0,003381747;
2580,639;0,003374861;
2578,711;0,003359848;
2576,782;0,00335425;
2574,853;0,003371322;
2572,924;0,003376997;
2570,996;0,003349821;
2569,067;0,003323494;
2567,138;0,003321948;
2565,209;0,003342795;
2563,281;0,003388968;
2561,352;0,003439524;
2559,423;0,003453328;
2557,494;0,003439438;
2555,566;0,003437883;
2553,637;0,003459896;
2551,708;0,003498492;
2549,780;0,003531455;
2547,851;0,003544489;
2545,922;0,003563323;
2543,993;0,003602051;
2542,065;0,003636293;
2540,136;0,003653758;
2538,207;0,003678577;
2536,278;0,003721113;
2534,350;0,003751485;
2532,421;0,003760349;
2530,492;0,00376916;
2528,564;0,003778781;
2526,635;0,003791258;
2524,706;0,003829572;
2522,777;0,003888057;
2520,849;0,003934557;
2518,920;0,003968413;
2516,991;0,004001914;
2515,062;0,004033744;
2513,134;0,004074645;
2511,205;0,004127888;
2509,276;0,00418468;
2507,348;0,004249041;
2505,419;0,004311261;
2503,490;0,004358122;
2501,561;0,004390674;
2499,633;0,004417771;
2497,704;0,004474504;
2495,775;0,004570352;
2493,846;0,004663301;
2491,918;0,004743513;
2489,989;0,004828151;
2488,060;0,004900068;
2486,132;0,004955906;
2484,203;0,005030195;
2482,274;0,005128602;
2480,345;0,005221611;
2478,417;0,00530748;
2476,488;0,00539963;
2474,559;0,005492322;
2472,630;0,005591111;
2470,702;0,005697887;
2468,773;0,005799818;
2466,844;0,00591252;
2464,916;0,006046847;
2462,987;0,00617879;
2461,058;0,006303609;
2459,129;0,006443407;
2457,201;0,006600135;
2455,272;0,006752158;
2453,343;0,0068909;
2451,414;0,007047541;
2449,486;0,007248772;
2447,557;0,007461012;
2445,628;0,007656915;
2443,699;0,007858137;
2441,771;0,008077513;
2439,842;0,008314912;
2437,913;0,008567729;
2435,985;0,008829988;
2434,056;0,009110925;
2432,127;0,009414261;
2430,198;0,00972961;
2428,270;0,01006178;
2426,341;0,01041759;
2424,412;0,01078805;
2422,483;0,01118064;
2420,555;0,01161263;
2418,626;0,01207292;
2416,697;0,01255581;
2414,769;0,01308537;
2412,840;0,01367163;
2410,911;0,0142957;
2408,982;0,01493616;
2407,054;0,0156009;
2405,125;0,01632952;
2403,196;0,01713937;
2401,267;0,01802225;
2399,339;0,01898112;
2397,410;0,01999823;
2395,481;0,02106124;
2393,553;0,02221045;
2391,624;0,02344356;
2389,695;0,0247094;
2387,766;0,02600958;
2385,838;0,0273531;
2383,909;0,02871042;
2381,980;0,03003687;
2380,051;0,03127943;
2378,123;0,03240353;
2376,194;0,03339293;
2374,265;0,03426972;
2372,337;0,03509823;
2370,408;0,03591693;
2368,479;0,03674592;
2366,550;0,0376281;
2364,622;0,03861934;
2362,693;0,03978247;
2360,764;0,04118648;
2358,835;0,04288915;
2356,907;0,0449584;
2354,978;0,04749793;
2353,049;0,0505354;
2351,121;0,05362545;
2349,192;0,0557223;
2347,263;0,05620135;
2345,334;0,05570238;
2343,406;0,05523566;
2341,477;0,05509835;
2339,548;0,05516151;
2337,619;0,05534047;
2335,691;0,05555276;
2333,762;0,05566549;
2331,833;0,05563412;
2329,904;0,05556083;
2327,976;0,05549765;
2326,047;0,05536187;
2324,118;0,05508638;
2322,190;0,05465746;
2320,261;0,05403772;
2318,332;0,05318489;
2316,403;0,05207515;
2314,475;0,05072616;
2312,546;0,04921388;
2310,617;0,04758305;
2308,688;0,04582441;
2306,760;0,04394841;
2304,831;0,04199823;
2302,902;0,04001105;
2300,974;0,03801165;
2299,045;0,03604013;
2297,116;0,03413713;
2295,187;0,03231908;
2293,259;0,03058114;
2291,330;0,02892037;
2289,401;0,02736634;
2287,472;0,02592336;
2285,544;0,02452473;
2283,615;0,02313893;
2281,686;0,02180792;
2279,758;0,0205485;
2277,829;0,01935289;
2275,900;0,01823806;
2273,971;0,01721624;
2272,043;0,01627348;
2270,114;0,01538424;
2268,185;0,01454159;
2266,256;0,01375964;
2264,328;0,01303287;
2262,399;0,01234686;
2260,470;0,01170638;
2258,542;0,01111193;
2256,613;0,01055669;
2254,684;0,01003861;
2252,755;0,009555709;
2250,827;0,009114665;
2248,898;0,008724825;
2246,969;0,008373491;
2245,040;0,008033109;
2243,112;0,007698827;
2241,183;0,007389149;
2239,254;0,007103165;
2237,326;0,006823704;
2235,397;0,006553724;
2233,468;0,006304774;
2231,539;0,0060709;
2229,611;0,005844405;
2227,682;0,005637398;
2225,753;0,005461282;
2223,824;0,00530432;
2221,896;0,005149958;
2219,967;0,00499181;
2218,038;0,004832295;
2216,109;0,004680014;
2214,181;0,004535928;
2212,252;0,004396934;
2210,323;0,004268595;
2208,395;0,004152904;
2206,466;0,004039352;
2204,537;0,003921335;
2202,608;0,003810129;
2200,680;0,003715384;
2198,751;0,003631407;
2196,822;0,003548937;
2194,893;0,003456312;
2192,965;0,003356307;
2191,036;0,003268856;
2189,107;0,003200694;
2187,179;0,003144916;
2185,250;0,003090523;
2183,321;0,003027011;
2181,392;0,002952568;
2179,464;0,002878945;
2177,535;0,002820683;
2175,606;0,002769841;
2173,677;0,002712765;
2171,749;0,002656621;
2169,820;0,002612034;
2167,891;0,002577792;
2165,963;0,002543265;
2164,034;0,002501801;
2162,105;0,002456893;
2160,176;0,002412233;
2158,248;0,002368312;
2156,319;0,002324378;
2154,390;0,002280307;
2152,461;0,002235955;
2150,533;0,002191979;
2148,604;0,002145785;
2146,675;0,002097249;
2144,747;0,00205979;
2142,818;0,002032632;
2140,889;0,002006255;
2138,960;0,001991455;
2137,032;0,001991339;
2135,103;0,001979334;
2133,174;0,001943163;
2131,245;0,001904181;
2129,317;0,001881337;
2127,388;0,001870203;
2125,459;0,001851556;
2123,530;0,001816058;
2121,602;0,001781147;
2119,673;0,001759685;
2117,744;0,001735454;
2115,816;0,001700617;
2113,887;0,001676813;
2111,958;0,001676118;
2110,029;0,001683336;
2108,101;0,001676622;
2106,172;0,001646686;
2104,243;0,001604833;
2102,314;0,001576285;
2100,386;0,001573857;
2098,457;0,001579309;
2096,528;0,001575366;
2094,600;0,001574781;
2092,671;0,001584161;
2090,742;0,001580087;
2088,813;0,001553387;
2086,885;0,001527625;
2084,956;0,001516461;
2083,027;0,001502363;
2081,098;0,001476636;
2079,170;0,001459369;
2077,241;0,001456673;
2075,312;0,001441338;
2073,384;0,001410271;
2071,455;0,001391521;
2069,526;0,001393027;
2067,597;0,001400906;
2065,669;0,001402518;
2063,740;0,001396597;
2061,811;0,001385294;
2059,882;0,001376908;
2057,954;0,001382395;
2056,025;0,001382727;
2054,096;0,001362756;
2052,168;0,001348333;
2050,239;0,001355024;
2048,310;0,001364293;
2046,381;0,001364792;
2044,453;0,001358011;
2042,524;0,001344126;
2040,595;0,001334349;
2038,666;0,001336243;
2036,738;0,001339021;
2034,809;0,001342442;
2032,880;0,001352766;
2030,952;0,001354872;
2029,023;0,001342514;
2027,094;0,001336519;
2025,165;0,001339482;
2023,237;0,001336737;
2021,308;0,001328304;
2019,379;0,001319497;
2017,450;0,001318039;
2015,522;0,001324016;
2013,593;0,001329522;
2011,664;0,001336313;
2009,735;0,001338285;
2007,807;0,001329332;
2005,878;0,001324075;
2003,949;0,001327285;
2002,021;0,001333236;
2000,092;0,001347201;
1998,163;0,00136686;
1996,234;0,001386272;
1994,306;0,001406576;
1992,377;0,001421876;
1990,448;0,001426563;
1988,519;0,001423739;
1986,591;0,001414912;
1984,662;0,001402772;
1982,733;0,001403297;
1980,805;0,001420114;
1978,876;0,00143224;
1976,947;0,001430793;
1975,018;0,001423136;
1973,090;0,001415638;
1971,161;0,001410217;
1969,232;0,001412253;
1967,303;0,001436774;
1965,375;0,001477538;
1963,446;0,001507985;
1961,517;0,001525032;
1959,589;0,001544922;
1957,660;0,001567686;
1955,731;0,001577977;
1953,802;0,001577686;
1951,874;0,001575809;
1949,945;0,001569062;
1948,016;0,001575151;
1946,087;0,001605585;
1944,159;0,001630575;
1942,230;0,001650226;
1940,301;0,001687043;
1938,373;0,001726633;
1936,444;0,001750733;
1934,515;0,001765851;
1932,586;0,001779478;
1930,658;0,001795722;
1928,729;0,001830605;
1926,800;0,00187861;
1924,871;0,00191087;
1922,943;0,001924296;
1921,014;0,001937938;
1919,085;0,001966603;
1917,157;0,002018082;
1915,228;0,002080837;
1913,299;0,002126863;
1911,370;0,00215862;
1909,442;0,002204844;
1907,513;0,002259778;
1905,584;0,002300403;
1903,655;0,002333711;
1901,727;0,002376409;
1899,798;0,002428683;
1897,869;0,00248675;
1895,940;0,002558576;
1894,012;0,002648798;
1892,083;0,002749566;
1890,154;0,00285473;
1888,226;0,002956206;
1886,297;0,003044577;
1884,368;0,003125833;
1882,439;0,003204895;
1880,511;0,003291103;
1878,582;0,00340683;
1876,653;0,003539995;
1874,724;0,003660976;
1872,796;0,003762506;
1870,867;0,003851192;
1868,938;0,003959354;
1867,010;0,004118448;
1865,081;0,004312601;
1863,152;0,004522308;
1861,223;0,00475587;
1859,295;0,005004455;
1857,366;0,005266137;
1855,437;0,005570063;
1853,508;0,005910398;
1851,580;0,006263526;
1849,651;0,006637302;
1847,722;0,00701819;
1845,794;0,007402784;
1843,865;0,007899397;
1841,936;0,008567131;
1840,007;0,009293616;
1838,079;0,01000545;
1836,150;0,01074323;
1834,221;0,01152898;
1832,292;0,01233717;
1830,364;0,01323539;
1828,435;0,014311;
1826,506;0,0154938;
1824,578;0,01674234;
1822,649;0,01805722;
1820,720;0,01932194;
1818,791;0,02043124;
1816,863;0,02134015;
1814,934;0,02196504;
1813,005;0,02222045;
1811,076;0,02218644;
1809,148;0,02211218;
1807,219;0,02223322;
1805,290;0,02268038;
1803,362;0,02347694;
1801,433;0,02459489;
1799,504;0,02592517;
1797,575;0,02711307;
1795,647;0,02765373;
1793,718;0,02738935;
1791,789;0,02669055;
1789,860;0,02575135;
1787,932;0,02428089;
1786,003;0,02221741;
1784,074;0,0198854;
1782,145;0,01752906;
1780,217;0,0152517;
1778,288;0,01313752;
1776,359;0,01119195;
1774,431;0,009395122;
1772,502;0,007864835;
1770,573;0,00675801;
1768,644;0,006038103;
1766,716;0,005556855;
1764,787;0,005157018;
1762,858;0,004719092;
1760,929;0,004254087;
1759,001;0,003794794;
1757,072;0,003341435;
1755,143;0,002933104;
1753,215;0,002577966;
1751,286;0,00226959;
1749,357;0,002034059;
1747,428;0,001853507;
1745,500;0,001676061;
1743,571;0,001491255;
1741,642;0,001311794;
1739,713;0,001138321;
1737,785;0,000974757;
1735,856;0,0008236849;
1733,927;0,000701202;
1731,999;0,0006188551;
1730,070;0,0005376609;
1728,141;0,0004347108;
1726,212;0,0003341533;
1724,284;0,0002391498;
1722,355;0,0001355772;
1720,426;5,7284E-5;
1718,497;3,385537E-5;
1716,569;3,259711E-5;
1714,640;5,4835E-5;
1712,711;6,613045E-5;
1710,783;7,020046E-5;
1708,854;7,832819E-5;
1706,925;0,0001018894;
1704,996;0,0001364759;
1703,068;0,0001928976;
1701,139;0,0003079292;
1699,210;0,0004892405;
1697,281;0,0007247825;
1695,353;0,001031628;
1693,424;0,00143162;
1691,495;0,0019416;
1689,567;0,002599206;
1687,638;0,003383058;
1685,709;0,004314426;
1683,780;0,005497284;
1681,852;0,006763164;
1679,923;0,007767975;
1677,994;0,008391458;
1676,065;0,008887956;
1674,137;0,009609806;
1672,208;0,01050233;
1670,279;0,0114232;
1668,350;0,01245781;
1666,422;0,01338046;
1664,493;0,01374068;
1662,564;0,01347033;
1660,636;0,01274441;
1658,707;0,01162056;
1656,778;0,01014062;
1654,849;0,008494886;
1652,921;0,007155341;
1650,992;0,006441627;
1649,063;0,005942145;
1647,134;0,005375552;
1645,206;0,004913438;
1643,277;0,004582095;
1641,348;0,004248244;
1639,420;0,003885245;
1637,491;0,003535546;
1635,562;0,003276724;
1633,633;0,003148594;
1631,705;0,003058363;
1629,776;0,002930037;
1627,847;0,002780977;
1625,918;0,002625856;
1623,990;0,002473017;
1622,061;0,002338928;
1620,132;0,002206592;
1618,204;0,002053226;
1616,275;0,001920169;
1614,346;0,00184442;
1612,417;0,001786734;
1610,489;0,001725451;
1608,560;0,001680217;
1606,631;0,001640791;
1604,702;0,001577329;
1602,774;0,001507336;
1600,845;0,001442683;
1598,916;0,001370964;
1596,988;0,001316889;
1595,059;0,00128144;
1593,130;0,001235078;
1591,201;0,001177447;
1589,273;0,001124072;
1587,344;0,001093746;
1585,415;0,001089282;
1583,486;0,001082942;
1581,558;0,001046375;
1579,629;0,0009881991;
1577,700;0,000931258;
1575,771;0,0008938049;
1573,843;0,00087802;
1571,914;0,0008687411;
1569,985;0,0008612804;
1568,057;0,0008541959;
1566,128;0,0008387473;
1564,199;0,000808479;
1562,270;0,0007604487;
1560,342;0,000703397;
1558,413;0,0006690916;
1556,484;0,0006737984;
1554,555;0,0006895398;
1552,627;0,0006898804;
1550,698;0,0006779222;
1548,769;0,0006674361;
1546,841;0,0006522514;
1544,912;0,0006222471;
1542,983;0,0005987072;
1541,054;0,0005945569;
1539,126;0,0005958424;
1537,197;0,0005950973;
1535,268;0,000592039;
1533,339;0,0005813121;
1531,411;0,000564337;
1529,482;0,0005426945;
1527,553;0,0005219259;
1525,625;0,000517807;
1523,696;0,0005157138;
1521,767;0,0004996407;
1519,838;0,0004949379;
1517,910;0,0005145156;
1515,981;0,000527526;
1514,052;0,0005063709;
1512,123;0,0004719013;
1510,195;0,0004528305;
1508,266;0,0004389911;
1506,337;0,0004311015;
1504,409;0,0004450375;
1502,480;0,0004670906;
1500,551;0,000474666;
1498,622;0,0004608999;
1496,694;0,000442018;
1494,765;0,0004405118;
1492,836;0,0004500281;
1490,907;0,0004537504;
1488,979;0,0004410105;
1487,050;0,0004090375;
1485,121;0,0003869649;
1483,193;0,0004010858;
1481,264;0,0004253139;
1479,335;0,000428652;
1477,406;0,0004089866;
1475,478;0,0003898462;
1473,549;0,0003896042;
1471,620;0,0004060358;
1469,691;0,0004239587;
1467,763;0,0004205507;
1465,834;0,000392629;
1463,905;0,0003801899;
1461,976;0,0003950398;
1460,048;0,0004053758;
1458,119;0,0003895471;
1456,190;0,0003614804;
1454,262;0,0003496154;
1452,333;0,0003401235;
1450,404;0,0003179027;
1448,475;0,000309507;
1446,547;0,0003288882;
1444,618;0,0003568312;
1442,689;0,0003823356;
1440,760;0,0003921658;
1438,832;0,0003739282;
1436,903;0,0003520173;
1434,974;0,0003464495;
1433,046;0,0003447034;
1431,117;0,0003352651;
1429,188;0,0003227221;
1427,259;0,0003235564;
1425,331;0,0003362852;
1423,402;0,0003430649;
1421,473;0,0003509411;
1419,544;0,0003571969;
1417,616;0,0003543576;
1415,687;0,0003563942;
1413,758;0,0003623077;
1411,830;0,0003607393;
1409,901;0,0003628877;
1407,972;0,0003732077;
1406,043;0,0003654638;
1404,115;0,0003455477;
1402,186;0,0003446221;
1400,257;0,0003582007;
1398,328;0,0003704596;
1396,400;0,00038346;
1394,471;0,0003943549;
1392,542;0,0003947239;
1390,614;0,0003791539;
1388,685;0,000357371;
1386,756;0,0003499779;
1384,827;0,0003610656;
1382,899;0,000372989;
1380,970;0,0003769739;
1379,041;0,000378173;
1377,112;0,0003846086;
1375,184;0,000395688;
1373,255;0,0004085034;
1371,326;0,0004164614;
1369,398;0,0004074412;
1367,469;0,0003846929;
1365,540;0,0003823925;
1363,611;0,0004141264;
1361,683;0,00043629;
1359,754;0,0004281797;
1357,825;0,0004247192;
1355,896;0,0004368598;
1353,968;0,0004459436;
1352,039;0,0004422303;
1350,110;0,0004234553;
1348,181;0,0003965205;
1346,253;0,0003844761;
1344,324;0,0003984373;
1342,395;0,0004093182;
1340,467;0,0003897188;
1338,538;0,0003501298;
1336,609;0,0003210141;
1334,680;0,0003230061;
1332,752;0,0003453058;
1330,823;0,0003635017;
1328,894;0,0003769668;
1326,965;0,0003945775;
1325,037;0,0004163037;
1323,108;0,000439001;
1321,179;0,0004587701;
1319,251;0,0004681583;
1317,322;0,0004664242;
1315,393;0,0004426536;
1313,464;0,0003841408;
1311,536;0,0003303657;
1309,607;0,0003272403;
1307,678;0,0003569777;
1305,749;0,000382153;
1303,821;0,0003921487;
1301,892;0,0003882145;
1299,963;0,0003790082;
1298,035;0,0003771231;
1296,106;0,000392226;
1294,177;0,0004228726;
1292,248;0,0004545971;
1290,320;0,0004660836;
1288,391;0,0004662931;
1286,462;0,0004800022;
1284,533;0,0004994275;
1282,605;0,0005130966;
1280,676;0,0005276544;
1278,747;0,0005508658;
1276,819;0,0005832866;
1274,890;0,0006124856;
1272,961;0,0006359069;
1271,032;0,0006519595;
1269,104;0,0006502557;
1267,175;0,0006416545;
1265,246;0,0006436056;
1263,317;0,0006517522;
1261,389;0,0006576886;
1259,460;0,0006722038;
1257,531;0,0007098709;
1255,603;0,0007664319;
1253,674;0,0008215965;
1251,745;0,0008553558;
1249,816;0,0008789964;
1247,888;0,0009340431;
1245,959;0,001023538;
1244,030;0,001106158;
1242,101;0,001164122;
1240,173;0,001202573;
1238,244;0,00123911;
1236,315;0,001292905;
1234,386;0,001349627;
1232,458;0,001373583;
1230,529;0,001317952;
1228,600;0,001144577;
1226,672;0,0008889431;
1224,743;0,0006460613;
1222,814;0,0004788162;
1220,885;0,0003930677;
1218,957;0,0003722122;
1217,028;0,0004070905;
1215,099;0,0004867494;
1213,170;0,0005841594;
1211,242;0,0006762716;
1209,313;0,000759181;
1207,384;0,000840051;
1205,456;0,000929481;
1203,527;0,001031547;
1201,598;0,001151879;
1199,669;0,001298771;
1197,741;0,001467925;
1195,812;0,00163992;
1193,883;0,001799927;
1191,954;0,001962826;
1190,026;0,002151666;
1188,097;0,0023605;
1186,168;0,002587149;
1184,240;0,002844176;
1182,311;0,00311512;
1180,382;0,003394759;
1178,453;0,003706195;
1176,525;0,004027876;
1174,596;0,004324225;
1172,667;0,004597839;
1170,738;0,004840776;
1168,810;0,005019609;
1166,881;0,005131283;
1164,952;0,005202031;
1163,024;0,005220032;
1161,095;0,005149969;
1159,166;0,004998966;
1157,237;0,004808605;
1155,309;0,004591071;
1153,380;0,004310774;
1151,451;0,003966208;
1149,522;0,003597159;
1147,594;0,003210483;
1145,665;0,00283286;
1143,736;0,002507325;
1141,807;0,002201073;
1139,879;0,001881481;
1137,950;0,001590787;
1136,021;0,0013415;
1134,093;0,001093037;
1132,164;0,0008584513;
1130,235;0,0006840566;
1128,306;0,0005681908;
1126,378;0,000465899;
1124,449;0,0003488244;
1122,520;0,0002474447;
1120,591;0,0002141812;
1118,663;0,0002768518;
1116,734;0,0004307482;
1114,805;0,0006334625;
1112,877;0,0008457199;
1110,948;0,001002443;
1109,019;0,001048529;
1107,090;0,0009925136;
1105,162;0,0008759842;
1103,233;0,0007410527;
1101,304;0,0006397463;
1099,375;0,0005831434;
1097,447;0,0005250463;
1095,518;0,0004479942;
1093,589;0,0003828239;
1091,661;0,0003436586;
1089,732;0,0003236214;
1087,803;0,0003127318;
1085,874;0,000293008;
1083,946;0,0002629565;
1082,017;0,0002361679;
1080,088;0,0002377425;
1078,159;0,0002497476;
1076,231;0,0002158889;
1074,302;0,0001632964;
1072,373;0,0001482911;
1070,445;0,0001445393;
1068,516;0,0001482764;
1066,587;0,0001882662;
1064,658;0,0002447227;
1062,730;0,000231055;
1060,801;0,0001847222;
1058,872;0,0001783268;
1056,943;0,0001764629;
1055,015;0,0001804473;
1053,086;0,0002282115;
1051,157;0,0002769596;
1049,229;0,0002562691;
1047,300;0,0002112894;
1045,371;0,0001798303;
1043,442;0,0001441025;
1041,514;0,0001205617;
1039,585;0,0001352262;
1037,656;0,0001828125;
1035,727;0,0002085352;
1033,799;0,0001864176;
1031,870;0,0001676245;
1029,941;0,0001530639;
1028,012;0,0001317397;
1026,084;0,0001183731;
1024,155;9,669612E-5;
1022,226;8,692857E-5;
1020,298;0,0001227047;
1018,369;0,000161575;
1016,440;0,000166555;
1014,511;0,0001539644;
1012,583;0,0001489588;
1010,654;0,0001222834;
1008,725;8,41724E-5;
1006,796;4,780692E-5;
1004,868;7,558907E-5;
1002,939;8,740168E-5;
1001,010;6,695424E-5;
999,082;3,936082E-5;
997,153;3,418922E-5;
995,224;6,648454E-5;
993,295;9,536286E-5;
991,367;6,946628E-5;
989,438;6,620293E-5;
987,509;5,681195E-5;
985,580;6,179819E-5;
983,652;8,853003E-5;
981,723;0,0001237671;
979,794;0,0001293746;
977,866;0,0001012791;
975,937;6,646691E-5;
974,008;7,008212E-5;
972,079;7,517535E-5;
970,151;6,519945E-5;
968,222;3,270208E-5;
966,293;2,549587E-5;
964,364;4,861844E-5;
962,436;4,78701E-5;
960,507;2,128521E-5;
958,578;2,942871E-5;
956,650;5,789365E-5;
954,721;6,437171E-5;
952,792;6,315195E-5;
950,863;7,140893E-5;
948,935;6,674503E-5;
947,006;5,164637E-5;
945,077;5,130151E-5;
943,148;6,119578E-5;
941,220;4,327151E-5;
939,291;2,755961E-5;
937,362;2,684486E-5;
935,434;6,703197E-5;
933,505;6,799037E-5;
931,576;3,169493E-5;
929,647;3,57463E-5;
927,719;5,702088E-5;
925,790;7,331878E-5;
923,861;6,455569E-5;
921,932;6,134992E-5;
920,004;6,985046E-5;
918,075;7,703838E-5;
916,146;7,28606E-5;
914,217;7,786199E-5;
912,289;6,170687E-5;
910,360;3,541703E-5;
908,431;3,27812E-5;
906,503;4,422589E-5;
904,574;5,064874E-5;
902,645;5,784757E-5;
900,716;9,089564E-5;
898,788;0,0001217691;
896,859;0,0001265092;
894,930;0,0001058191;
893,001;6,535431E-5;
891,073;4,977698E-5;
889,144;5,655614E-5;
887,215;4,383265E-5;
885,287;1,88779E-5;
883,358;2,169498E-5;
881,429;5,013463E-5;
879,500;2,736127E-5;
877,572;3,819315E-5;
875,643;5,668025E-5;
873,714;0,0001444856;
871,785;0,0001655609;
869,857;0,0001041287;
867,928;3,751852E-5;
865,999;9,124413E-5;
864,071;0,0001159286;
862,142;9,000759E-5;
860,213;8,546079E-5;
858,284;0,0001257113;
856,356;0,0001020399;
854,427;5,645388E-5;
852,498;7,427511E-5;
850,569;7,908077E-5;
848,641;4,865753E-5;
846,712;9,524402E-5;
844,783;0,0001201202;
842,855;0,0001076576;
840,926;0,0001111152;
838,997;8,473751E-5;
837,068;8,473865E-5;
835,140;0,0001349183;
833,211;0,0001755574;
831,282;0,0001644241;
829,353;0,0001784317;
827,425;0,0001890483;
825,496;0,0001366638;
823,567;6,569739E-5;
821,639;5,65097E-5;
819,710;7,735839E-5;
817,781;6,165956E-5;
815,852;3,454589E-5;
813,924;7,808732E-5;
811,995;9,492935E-5;
810,066;8,593704E-5;
808,137;0,000116071;
806,209;0,0001225346;
804,280;9,79617E-5;
802,351;6,854273E-5;
800,422;0,0001031374;
798,494;0,0001123487;
796,565;0,0001011596;
794,636;0,0001231613;
792,708;8,383641E-5;
790,779;6,038533E-5;
788,850;0,000126246;
786,921;9,307827E-5;
784,993;3,202587E-5;
783,064;0,0001184935;
781,135;0,0001701765;
779,206;0,0001364502;
777,278;0,0001235006;
775,349;9,537436E-5;
773,420;0,0001650046;
771,492;0,000200733;
769,563;0,0001683722;
767,634;0,0001037133;
765,705;0,0001644083;
763,777;0,0001332541;
761,848;0,000108754;
759,919;7,290842E-5;
757,990;9,010403E-5;
756,062;0,0001408144;
754,133;0,0001545961;
752,204;0,0001229633;
750,276;9,930467E-5;
748,347;7,708794E-5;
746,418;4,857041E-5;
744,489;0,0001131576;
742,561;0,0001148721;
740,632;0,0001214384;
738,703;0,0001362222;
736,774;0,0001789681;
734,846;0,0002042176;
732,917;0,0001774195;
730,988;0,0001263568;
729,060;0,0001258942;
727,131;0,0001215452;
725,202;0,0001514483;
723,273;0,0001420229;
721,345;7,505646E-5;
719,416;9,556717E-5;
717,487;8,390462E-5;
715,558;9,050192E-5;
713,630;0,0001033388;
711,701;0,0001335375;
709,772;0,0001517766;
707,843;5,192598E-5;
705,915;0,0001238613;
703,986;0,0001052629;
702,057;5,596963E-5;
700,129;0,0001380319;
698,200;0,0001973887;
696,271;0,0001693528;
694,342;0,0001003555;
692,414;0,0001129867;
690,485;0,0001091653;
688,556;0,000244277;
686,627;0,0002116002;
684,699;0,000129415;
682,770;0,0001158903;
680,841;0,0001055001;
678,913;0,0001250081;
676,984;0,0002131344;
675,055;0,0002636208;
673,126;0,0002632704;
671,198;0,0002176012;
669,269;0,0001178569;
667,340;6,429516E-5;
665,411;8,428324E-5;
663,483;0,000151531;
661,554;0,000173989;
659,625;0,0001446505;
657,697;0,000114965;
655,768;0,0001452044;
653,839;0,0001261918;
651,910;0,0001539771;
649,982;0,0001902587;
648,053;0,0001895891;
646,124;0,0001291782;
644,195;0,0001054211;
642,267;0,0002056328;
640,338;0,0001662519;
638,409;0,000115813;
636,481;0,0001419435;
634,552;0,0001353829;
632,623;0,0001607732;
630,694;0,0001083001;
628,766;5,76763E-5;
626,837;0,0001176212;
624,908;0,00020787;
622,979;0,0002233657;
621,051;0,0001101671;
619,122;3,920215E-5;
617,193;0,0001210414;
615,265;0,0001512738;
613,336;0,000219842;
611,407;0,0002633446;
609,478;0,0003438346;
607,550;0,000430755;
605,621;0,0005131898;
603,692;0,0004106139;
601,763;0,00025338;
599,835;0,0002464495;
597,906;0,0002513007;
595,977;0,0003124928;
594,048;0,0004667158;
592,120;0,0004790762;
590,191;0,0002589365;
588,262;8,265245E-5;
586,334;0,0001717858;
584,405;0,000266683;
582,476;0,0002896308;
580,547;0,0003054621;
578,619;0,0003256811;
576,690;0,0002558972;
574,761;8,512638E-5;
572,832;0,0002387736;
570,904;0,0004035491;
568,975;0,0003862754;
567,046;0,0003277142;
565,118;0,0001814805;
563,189;9,183282E-5;
561,260;0,0002431283;
559,331;0,0002732262;
557,403;0,0001413079;
555,474;0,0002476965;
553,545;0,0001726163;
551,616;0,0001820605;
549,688;0,0002722166;
547,759;0,000234341;
545,830;0,000262813;
543,902;0,0002173079;
541,973;0,0001273803;
540,044;0,0002932826;
538,115;0,0003240857;
536,187;0,0001919373;
534,258;8,137067E-5;
532,329;0,0002929655;
530,400;0,0002140414;
528,472;0,0002381574;
526,543;0,0003709424;
524,614;0,0005475729;
522,686;0,0005444928;
520,757;0,0003913852;
518,828;0,0003613756;
516,899;0,0004850192;
514,971;0,0003994229;
513,042;0,0002344619;
511,113;0,0003743563;
509,184;0,0002571987;
507,256;0,0002642956;
505,327;0,0003412651;
503,398;0,0002210318;
501,470;0,0003583718;
499,541;0,0003836345;
497,612;0,0004281582;
495,683;0,0004192605;
493,755;0,0003315951;
491,826;0,0004492368;
489,897;0,0006424829;
487,968;0,0007168025;
486,040;0,0005523867;
484,111;0,0004169563;
482,182;0,0005641536;
480,253;0,00055012;
478,325;0,0004965316;
476,396;0,0005843551;
474,467;0,000784015;
472,539;0,001274418;
470,610;0,001019512;
468,681;0,0006740744;
466,752;0,000527359;
464,824;0,0001896919;
462,895;0,00038652;
460,966;0,0006660692;
459,037;0,0007096052;
457,109;0,0007713358;
455,180;0,0009630107;
453,251;0,00106848;
451,323;0,001070584;
449,394;0,0008485232;
447,465;0,0007817268;
445,536;0,0008350019;
443,608;0,0008134316;
441,679;0,000920237;
439,750;0,001124373;
437,821;0,001079984;
435,893;0,001170509;
433,964;0,001123883;
432,035;0,0008793426;
430,107;0,0007111886;
428,178;0,0009280118;
426,249;0,000880171;
424,320;0,000393043;
422,392;0,001669588;
420,463;0,002589686;
418,534;0,002182517;
416,605;0,001019082;
414,677;0,001215265;
412,748;0,001214702;
410,819;0,002169955;
408,891;0,00350487;
406,962;0,003255798;
405,033;0,002209113;
403,104;0,001971654;
401,176;0,001910222;
399,247;0,001879078;
397,318;0,001911142;
395,389;0,002585503;
393,461;0,002571108;
391,532;0,001847644;
389,603;0,002556304;
387,675;0,0027057;
385,746;0,001810287;
383,817;0,001305928;
381,888;0,00363427;
379,960;0,004571564;
378,031;0,007427569;
376,102;0,008111503;
374,173;0,007834418;
