,2,
Wavenumbers [1/cm],Transmittance,
7496.969,0.1289892,
7495.040,0.1250839,
7493.112,0.1206522,
7491.183,0.1168064,
7489.254,0.1135479,
7487.326,0.1103978,
7485.397,0.1072376,
7483.468,0.1046659,
7481.539,0.1028355,
7479.611,0.1006271,
7477.682,0.0975523,
7475.753,0.09450714,
7473.824,0.09183846,
7471.896,0.08911,
7469.967,0.08649351,
7468.038,0.08419978,
7466.110,0.08199307,
7464.181,0.08041269,
7462.252,0.07965493,
7460.323,0.07857119,
7458.395,0.076925,
7456.466,0.07534529,
7454.537,0.07403433,
7452.608,0.07313848,
7450.680,0.07231284,
7448.751,0.07100093,
7446.822,0.06952479,
7444.893,0.06836002,
7442.965,0.06766689,
7441.036,0.06746571,
7439.107,0.06748682,
7437.179,0.06735392,
7435.250,0.06693611,
7433.321,0.06643111,
7431.392,0.06590612,
7429.464,0.06528886,
7427.535,0.064856,
7425.606,0.06485514,
7423.677,0.06507409,
7421.749,0.06507322,
7419.820,0.06504119,
7417.891,0.06569754,
7415.963,0.06666615,
7414.034,0.06692512,
7412.105,0.06673516,
7410.176,0.06706748,
7408.248,0.06792688,
7406.319,0.06853471,
7404.390,0.06886438,
7402.461,0.06962339,
7400.533,0.07063448,
7398.604,0.07139708,
7396.675,0.07243397,
7394.747,0.07378466,
7392.818,0.07488289,
7390.889,0.07615036,
7388.960,0.07795938,
7387.032,0.07950576,
7385.103,0.08002488,
7383.174,0.08050722,
7381.245,0.08176741,
7379.317,0.08276293,
7377.388,0.08431226,
7375.459,0.0880219,
7373.531,0.09209947,
7371.602,0.09472663,
7369.673,0.09665421,
7367.744,0.09879722,
7365.816,0.101295,
7363.887,0.1042855,
7361.958,0.1075436,
7360.029,0.1102369,
7358.101,0.1123811,
7356.172,0.1141962,
7354.243,0.1152197,
7352.314,0.1166723,
7350.386,0.1206323,
7348.457,0.1264936,
7346.528,0.1316638,
7344.600,0.1344476,
7342.671,0.1359129,
7340.742,0.1385589,
7338.813,0.1430357,
7336.885,0.1485721,
7334.956,0.1541861,
7333.027,0.1587595,
7331.098,0.1621986,
7329.170,0.1652175,
7327.241,0.168447,
7325.312,0.1718998,
7323.384,0.1749542,
7321.455,0.1772934,
7319.526,0.1792057,
7317.597,0.180839,
7315.669,0.1813951,
7313.740,0.1811548,
7311.811,0.1820791,
7309.882,0.1840506,
7307.954,0.1853854,
7306.025,0.1855848,
7304.096,0.1846718,
7302.168,0.1831277,
7300.239,0.1819294,
7298.310,0.1810394,
7296.381,0.179772,
7294.453,0.1786729,
7292.524,0.1782267,
7290.595,0.1771778,
7288.666,0.1748545,
7286.738,0.1721386,
7284.809,0.1692791,
7282.880,0.1656665,
7280.952,0.161507,
7279.023,0.1576851,
7277.094,0.1543198,
7275.165,0.150916,
7273.237,0.1471284,
7271.308,0.1427651,
7269.379,0.1381446,
7267.450,0.1340734,
7265.522,0.1305523,
7263.593,0.1265446,
7261.664,0.1216884,
7259.736,0.1168547,
7257.807,0.1129303,
7255.878,0.1099075,
7253.949,0.1071517,
7252.021,0.1042764,
7250.092,0.1012938,
7248.163,0.09812847,
7246.234,0.09474831,
7244.306,0.09135674,
7242.377,0.08830282,
7240.448,0.08601254,
7238.519,0.08435191,
7236.591,0.08253979,
7234.662,0.08019385,
7232.733,0.07772801,
7230.805,0.07581361,
7228.876,0.07438627,
7226.947,0.07288641,
7225.018,0.07147359,
7223.090,0.07023414,
7221.161,0.0687895,
7219.232,0.06751297,
7217.303,0.06672473,
7215.375,0.06596354,
7213.446,0.06522297,
7211.517,0.06466132,
7209.589,0.06395379,
7207.660,0.06298555,
7205.731,0.06194841,
7203.802,0.06103975,
7201.874,0.0604632,
7199.945,0.060218,
7198.016,0.06001523,
7196.087,0.05971722,
7194.159,0.05961127,
7192.230,0.05963348,
7190.301,0.05945022,
7188.373,0.05924127,
7186.444,0.05914969,
7184.515,0.05904697,
7182.586,0.05893266,
7180.658,0.05899588,
7178.729,0.05948474,
7176.800,0.06006672,
7174.871,0.06021793,
7172.943,0.06022709,
7171.014,0.06038022,
7169.085,0.06057389,
7167.157,0.06109131,
7165.228,0.06209662,
7163.299,0.06321479,
7161.370,0.0642019,
7159.442,0.06518549,
7157.513,0.06623445,
7155.584,0.06724172,
7153.655,0.06834313,
7151.727,0.06956702,
7149.798,0.07064738,
7147.869,0.07180171,
7145.941,0.07342093,
7144.012,0.07526448,
7142.083,0.07692415,
7140.154,0.07856733,
7138.226,0.0803858,
7136.297,0.08204304,
7134.368,0.08358438,
7132.439,0.08559394,
7130.511,0.08808684,
7128.582,0.09085902,
7126.653,0.09393979,
7124.724,0.09692115,
7122.796,0.09934593,
7120.867,0.101279,
7118.938,0.1032703,
7117.010,0.1061259,
7115.081,0.109841,
7113.152,0.1136017,
7111.223,0.1169909,
7109.295,0.1200299,
7107.366,0.1229499,
7105.437,0.1261371,
7103.508,0.1295359,
7101.580,0.1328962,
7099.651,0.1362911,
7097.722,0.1396281,
7095.794,0.1427676,
7093.865,0.1460221,
7091.936,0.1496984,
7090.007,0.1533761,
7088.079,0.1562361,
7086.150,0.1582975,
7084.221,0.1604106,
7082.292,0.1630577,
7080.364,0.1657414,
7078.435,0.1677629,
7076.506,0.1693493,
7074.578,0.1707479,
7072.649,0.1714042,
7070.720,0.1711374,
7068.791,0.1703724,
7066.863,0.1694445,
7064.934,0.1683345,
7063.005,0.1667617,
7061.076,0.1648012,
7059.148,0.1627049,
7057.219,0.1602804,
7055.290,0.1573062,
7053.362,0.154076,
7051.433,0.1509868,
7049.504,0.1477571,
7047.575,0.1439161,
7045.647,0.1396307,
7043.718,0.1353411,
7041.789,0.1313123,
7039.860,0.1274904,
7037.932,0.123564,
7036.003,0.1194247,
7034.074,0.1154202,
7032.146,0.1118229,
7030.217,0.1083671,
7028.288,0.1047984,
7026.359,0.1013382,
7024.431,0.09833678,
7022.502,0.09567218,
7020.573,0.09286804,
7018.644,0.08996497,
7016.716,0.08738181,
7014.787,0.08496024,
7012.858,0.08236954,
7010.929,0.07995753,
7009.001,0.0780443,
7007.072,0.07637049,
7005.143,0.07464758,
7003.215,0.07278473,
7001.286,0.07104029,
6999.357,0.0697842,
6997.428,0.06881775,
6995.500,0.06763363,
6993.571,0.06623571,
6991.642,0.06497853,
6989.713,0.06377719,
6987.785,0.0625678,
6985.856,0.0616502,
6983.927,0.06087852,
6981.999,0.06006496,
6980.070,0.05954795,
6978.141,0.05938102,
6976.212,0.05918384,
6974.284,0.05884136,
6972.355,0.05856844,
6970.426,0.05849486,
6968.497,0.05848853,
6966.569,0.05841143,
6964.640,0.0584348,
6962.711,0.05859087,
6960.783,0.05862029,
6958.854,0.05863607,
6956.925,0.05876197,
6954.996,0.05883202,
6953.068,0.05900982,
6951.139,0.05951058,
6949.210,0.0600893,
6947.281,0.0605479,
6945.353,0.06115266,
6943.424,0.06203093,
6941.495,0.06291995,
6939.567,0.06371703,
6937.638,0.06446848,
6935.709,0.06513716,
6933.780,0.06589424,
6931.852,0.06712493,
6929.923,0.06869566,
6927.994,0.069957,
6926.065,0.07088813,
6924.137,0.07204647,
6922.208,0.07364623,
6920.279,0.07555984,
6918.350,0.07756689,
6916.422,0.07958449,
6914.493,0.08167435,
6912.564,0.08370953,
6910.636,0.08570255,
6908.707,0.08790459,
6906.778,0.09024647,
6904.849,0.09257398,
6902.921,0.095113,
6900.992,0.09819202,
6899.063,0.1016634,
6897.134,0.104961,
6895.206,0.1078798,
6893.277,0.1106938,
6891.348,0.1137439,
6889.420,0.1170849,
6887.491,0.1203413,
6885.562,0.1234378,
6883.633,0.126736,
6881.705,0.1302519,
6879.776,0.1337146,
6877.847,0.1370326,
6875.918,0.1403794,
6873.990,0.1439233,
6872.061,0.1475707,
6870.132,0.1511938,
6868.204,0.1548168,
6866.275,0.1583623,
6864.346,0.1614905,
6862.417,0.1640053,
6860.489,0.1663415,
6858.560,0.1689582,
6856.631,0.1715139,
6854.702,0.1736393,
6852.774,0.1755453,
6850.845,0.1773017,
6848.916,0.1786019,
6846.988,0.179158,
6845.059,0.1791719,
6843.130,0.1791915,
6841.201,0.1793108,
6839.273,0.1791079,
6837.344,0.1781248,
6835.415,0.1763345,
6833.486,0.1740376,
6831.558,0.171362,
6829.629,0.1684485,
6827.700,0.1653941,
6825.772,0.1619633,
6823.843,0.1580879,
6821.914,0.1540559,
6819.985,0.1499417,
6818.057,0.1455969,
6816.128,0.1411274,
6814.199,0.1366894,
6812.270,0.1323617,
6810.342,0.1283631,
6808.413,0.1245706,
6806.484,0.1205364,
6804.555,0.1163561,
6802.627,0.11243,
6800.698,0.1086129,
6798.769,0.1047244,
6796.841,0.1010604,
6794.912,0.09776536,
6792.983,0.09484661,
6791.054,0.09222522,
6789.126,0.08948733,
6787.197,0.08664151,
6785.268,0.0840513,
6783.339,0.08163545,
6781.411,0.07930528,
6779.482,0.07721229,
6777.553,0.07541523,
6775.625,0.07384665,
6773.696,0.07227936,
6771.767,0.07052227,
6769.838,0.06864369,
6767.910,0.06689023,
6765.981,0.06553934,
6764.052,0.06456464,
6762.123,0.06364068,
6760.195,0.06259854,
6758.266,0.06155099,
6756.337,0.06059266,
6754.409,0.05962822,
6752.480,0.0586925,
6750.551,0.05792959,
6748.622,0.05727838,
6746.694,0.05665118,
6744.765,0.05612057,
6742.836,0.05583679,
6740.907,0.05574253,
6738.979,0.055574,
6737.050,0.05530529,
6735.121,0.05506654,
6733.193,0.05479192,
6731.264,0.05450584,
6729.335,0.05444315,
6727.406,0.05453022,
6725.478,0.05455083,
6723.549,0.05467269,
6721.620,0.05508277,
6719.691,0.05553996,
6717.763,0.05577915,
6715.834,0.05591831,
6713.905,0.05614253,
6711.977,0.05660962,
6710.048,0.05749733,
6708.119,0.05850872,
6706.190,0.05922316,
6704.262,0.05986052,
6702.333,0.06077823,
6700.404,0.06182028,
6698.475,0.06282801,
6696.547,0.06396585,
6694.618,0.06517579,
6692.689,0.06626768,
6690.760,0.06747332,
6688.832,0.06896941,
6686.903,0.07052828,
6684.974,0.07220165,
6683.046,0.07412292,
6681.117,0.07598975,
6679.188,0.07779541,
6677.259,0.07984676,
6675.331,0.08206802,
6673.402,0.08434685,
6671.473,0.08676055,
6669.544,0.08928856,
6667.616,0.09199376,
6665.687,0.0950222,
6663.758,0.09827311,
6661.830,0.1014653,
6659.901,0.1044668,
6657.972,0.1073601,
6656.043,0.1102254,
6654.115,0.1132445,
6652.186,0.1167498,
6650.257,0.1206801,
6648.328,0.1245809,
6646.400,0.1282401,
6644.471,0.1318309,
6642.542,0.1356786,
6640.614,0.1397634,
6638.685,0.1436615,
6636.756,0.1473925,
6634.827,0.1511565,
6632.899,0.1546154,
6630.970,0.157751,
6629.041,0.1610415,
6627.112,0.1644439,
6625.184,0.1674117,
6623.255,0.1696867,
6621.326,0.1715515,
6619.398,0.1732739,
6617.469,0.1747284,
6615.540,0.1756249,
6613.611,0.1757911,
6611.683,0.1753203,
6609.754,0.1744421,
6607.825,0.1733251,
6605.896,0.1718998,
6603.968,0.1697636,
6602.039,0.1667696,
6600.110,0.163355,
6598.182,0.1597756,
6596.253,0.15601,
6594.324,0.1521582,
6592.395,0.1480971,
6590.467,0.1437163,
6588.538,0.139287,
6586.609,0.1350381,
6584.680,0.1309105,
6582.752,0.126572,
6580.823,0.1219037,
6578.894,0.1173481,
6576.965,0.1131641,
6575.037,0.109195,
6573.108,0.1054426,
6571.179,0.1018885,
6569.251,0.09838242,
6567.322,0.0950378,
6565.393,0.0919204,
6563.464,0.08885325,
6561.536,0.08584601,
6559.607,0.08311474,
6557.678,0.08072335,
6555.749,0.07855939,
6553.821,0.07655094,
6551.892,0.07454623,
6549.963,0.07244074,
6548.035,0.07049228,
6546.106,0.0688438,
6544.177,0.06732217,
6542.248,0.06594368,
6540.320,0.06473432,
6538.391,0.06342898,
6536.462,0.06196978,
6534.533,0.06056428,
6532.605,0.05943275,
6530.676,0.05871498,
6528.747,0.05804819,
6526.819,0.05708324,
6524.890,0.05616001,
6522.961,0.05547661,
6521.032,0.05478306,
6519.104,0.05415924,
6517.175,0.05391032,
6515.246,0.05395242,
6513.317,0.05400627,
6511.389,0.05394832,
6509.460,0.05383917,
6507.531,0.05382958,
6505.603,0.05381329,
6503.674,0.05361265,
6501.745,0.05344483,
6499.816,0.05356008,
6497.888,0.05391899,
6495.959,0.05436027,
6494.030,0.05469958,
6492.101,0.05491146,
6490.173,0.05521039,
6488.244,0.05569796,
6486.315,0.05625915,
6484.386,0.05690142,
6482.458,0.05766921,
6480.529,0.05847783,
6478.600,0.05936735,
6476.672,0.06039316,
6474.743,0.06145137,
6472.814,0.06254181,
6470.885,0.06373698,
6468.957,0.06504697,
6467.028,0.06652404,
6465.099,0.0681097,
6463.170,0.06962097,
6461.242,0.07114291,
6459.313,0.07286555,
6457.384,0.07470115,
6455.456,0.07658879,
6453.527,0.07867262,
6451.598,0.08098645,
6449.669,0.08344584,
6447.741,0.08596307,
6445.812,0.08841852,
6443.883,0.09089277,
6441.954,0.0936806,
6440.026,0.09682208,
6438.097,0.1000028,
6436.168,0.1030553,
6434.240,0.1061669,
6432.311,0.1094445,
6430.382,0.1128041,
6428.453,0.116277,
6426.525,0.1198535,
6424.596,0.1233426,
6422.667,0.1267553,
6420.738,0.1303418,
6418.810,0.1341778,
6416.881,0.1381037,
6414.952,0.141945,
6413.024,0.1456389,
6411.095,0.1492024,
6409.166,0.1526702,
6407.237,0.1561602,
6405.309,0.1596798,
6403.380,0.1630285,
6401.451,0.1661484,
6399.522,0.1691241,
6397.594,0.1718737,
6395.665,0.1742641,
6393.736,0.176455,
6391.808,0.1785417,
6389.879,0.1801824,
6387.950,0.1811115,
6386.021,0.1814552,
6384.093,0.1813475,
6382.164,0.1805734,
6380.235,0.1790775,
6378.306,0.1771579,
6376.378,0.1747488,
6374.449,0.1718144,
6372.520,0.1686689,
6370.591,0.1652799,
6368.663,0.1614406,
6366.734,0.157167,
6364.805,0.1525625,
6362.877,0.1477966,
6360.948,0.1430472,
6359.019,0.1382979,
6357.090,0.133451,
6355.162,0.1285901,
6353.233,0.12385,
6351.304,0.1192561,
6349.375,0.1147968,
6347.447,0.1105231,
6345.518,0.1065161,
6343.589,0.1026887,
6341.661,0.09886087,
6339.732,0.09510773,
6337.803,0.09164838,
6335.874,0.08847551,
6333.946,0.08554965,
6332.017,0.0829518,
6330.088,0.08051617,
6328.159,0.07798467,
6326.231,0.07546972,
6324.302,0.07315084,
6322.373,0.07090284,
6320.445,0.06869093,
6318.516,0.06676618,
6316.587,0.06520187,
6314.658,0.06373405,
6312.730,0.06217035,
6310.801,0.06065878,
6308.872,0.05937357,
6306.943,0.05824712,
6305.015,0.05714231,
6303.086,0.05607334,
6301.157,0.05516341,
6299.229,0.05435431,
6297.300,0.05353881,
6295.371,0.05276555,
6293.442,0.0520415,
6291.514,0.0513952,
6289.585,0.05094552,
6287.656,0.05072803,
6285.727,0.05061843,
6283.799,0.05045207,
6281.870,0.05024815,
6279.941,0.0501187,
6278.013,0.05001616,
6276.084,0.04984463,
6274.155,0.04964027,
6272.226,0.04945717,
6270.298,0.04937517,
6268.369,0.04950919,
6266.440,0.0497921,
6264.511,0.05002174,
6262.583,0.05015632,
6260.654,0.05039906,
6258.725,0.05082707,
6256.796,0.05126618,
6254.868,0.05171661,
6252.939,0.05236309,
6251.010,0.05321538,
6249.082,0.05408305,
6247.153,0.05491215,
6245.224,0.05583586,
6243.295,0.05686672,
6241.367,0.05787143,
6239.438,0.05879274,
6237.509,0.05981971,
6235.580,0.06113049,
6233.652,0.06266248,
6231.723,0.0643077,
6229.794,0.06599681,
6227.866,0.06769715,
6225.937,0.06934512,
6224.008,0.07100893,
6222.079,0.07297859,
6220.151,0.07520243,
6218.222,0.07738068,
6216.293,0.07969936,
6214.364,0.08243809,
6212.436,0.08527111,
6210.507,0.08787711,
6208.578,0.09049568,
6206.650,0.09341075,
6204.721,0.09662033,
6202.792,0.1000194,
6200.863,0.1035682,
6198.935,0.1072211,
6197.006,0.1108921,
6195.077,0.1146485,
6193.148,0.1186651,
6191.220,0.1229018,
6189.291,0.1270659,
6187.362,0.1310896,
6185.434,0.1352118,
6183.505,0.1394469,
6181.576,0.1436502,
6179.647,0.1478578,
6177.719,0.1520294,
6175.790,0.1560294,
6173.861,0.1599276,
6171.932,0.163748,
6170.004,0.1673117,
6168.075,0.1705521,
6166.146,0.1734217,
6164.218,0.1757247,
6162.289,0.1774581,
6160.360,0.1787789,
6158.431,0.1796179,
6156.503,0.1798698,
6154.574,0.179533,
6152.645,0.1785828,
6150.716,0.1770352,
6148.788,0.174831,
6146.859,0.1719755,
6144.930,0.1687281,
6143.001,0.1651835,
6141.073,0.1612254,
6139.144,0.156871,
6137.215,0.1522455,
6135.287,0.1474174,
6133.358,0.1423981,
6131.429,0.1373234,
6129.500,0.132376,
6127.572,0.1275405,
6125.643,0.122728,
6123.714,0.1179498,
6121.785,0.1133064,
6119.857,0.1088912,
6117.928,0.1046756,
6115.999,0.1006012,
6114.071,0.09665895,
6112.142,0.09289846,
6110.213,0.08946483,
6108.284,0.08637685,
6106.356,0.08348966,
6104.427,0.08070275,
6102.498,0.07798181,
6100.569,0.07543789,
6098.641,0.0731331,
6096.712,0.07095832,
6094.783,0.06893153,
6092.855,0.06701866,
6090.926,0.06507281,
6088.997,0.06319038,
6087.068,0.06154207,
6085.140,0.0601256,
6083.211,0.05887929,
6081.282,0.05777136,
6079.353,0.05679132,
6077.425,0.05586237,
6075.496,0.05485653,
6073.567,0.05382136,
6071.639,0.05290597,
6069.710,0.05213109,
6067.781,0.05150621,
6065.852,0.05104379,
6063.924,0.05064781,
6061.995,0.05024552,
6060.066,0.04989665,
6058.137,0.04967586,
6056.209,0.04952043,
6054.280,0.04932749,
6052.351,0.04914301,
6050.423,0.04908964,
6048.494,0.04916005,
6046.565,0.04924565,
6044.636,0.04928613,
6042.708,0.04935212,
6040.779,0.04959018,
6038.850,0.04987467,
6036.921,0.0499507,
6034.993,0.04995646,
6033.064,0.05019746,
6031.135,0.0506817,
6029.206,0.05114496,
6027.278,0.05141278,
6025.349,0.0515692,
6023.420,0.05184519,
6021.492,0.05238917,
6019.563,0.05305244,
6017.634,0.05371644,
6015.705,0.0545054,
6013.777,0.05544791,
6011.848,0.05643488,
6009.919,0.0574076,
6007.990,0.05845817,
6006.062,0.05975578,
6004.133,0.06125174,
6002.204,0.0626775,
6000.276,0.06402794,
5998.347,0.06561677,
5996.418,0.06747391,
5994.489,0.06936146,
5992.561,0.07124043,
5990.632,0.07326239,
5988.703,0.07557905,
5986.774,0.07810324,
5984.846,0.08063676,
5982.917,0.08332939,
5980.988,0.08630904,
5979.060,0.08932817,
5977.131,0.09232908,
5975.202,0.09549227,
5973.273,0.09888948,
5971.345,0.1025657,
5969.416,0.1064589,
5967.487,0.1104195,
5965.558,0.1144089,
5963.630,0.1184595,
5961.701,0.122645,
5959.772,0.1269387,
5957.844,0.1312127,
5955.915,0.1355635,
5953.986,0.1401778,
5952.057,0.1449046,
5950.129,0.14941,
5948.200,0.1536359,
5946.271,0.1577765,
5944.342,0.1619051,
5942.414,0.1658431,
5940.485,0.1693621,
5938.556,0.1723915,
5936.627,0.1749831,
5934.699,0.1771754,
5932.770,0.1789039,
5930.841,0.1799874,
5928.913,0.1802927,
5926.984,0.1798366,
5925.055,0.1786991,
5923.126,0.1769706,
5921.198,0.1747194,
5919.269,0.1719195,
5917.340,0.1685196,
5915.411,0.1646216,
5913.483,0.1603749,
5911.554,0.1558084,
5909.625,0.1509672,
5907.697,0.1459274,
5905.768,0.1407098,
5903.839,0.1353569,
5901.910,0.1299728,
5899.982,0.1247202,
5898.053,0.1197098,
5896.124,0.1148917,
5894.195,0.110216,
5892.267,0.1056963,
5890.338,0.1012783,
5888.409,0.09697632,
5886.481,0.09297658,
5884.552,0.08932059,
5882.623,0.08585437,
5880.694,0.08252872,
5878.766,0.07940064,
5876.837,0.07649476,
5874.908,0.07378087,
5872.979,0.07123238,
5871.051,0.06886783,
5869.122,0.06666605,
5867.193,0.0645735,
5865.265,0.06259213,
5863.336,0.06070894,
5861.407,0.05888605,
5859.478,0.05721356,
5857.550,0.05581015,
5855.621,0.05457919,
5853.692,0.05335326,
5851.763,0.05218393,
5849.835,0.051199,
5847.906,0.05027291,
5845.977,0.04927227,
5844.049,0.04838869,
5842.120,0.04772412,
5840.191,0.04709908,
5838.262,0.04646716,
5836.334,0.04588393,
5834.405,0.04532393,
5832.476,0.04486053,
5830.547,0.04458677,
5828.619,0.04438739,
5826.690,0.04411025,
5824.761,0.04377193,
5822.832,0.04348295,
5820.904,0.04335966,
5818.975,0.04340594,
5817.046,0.0434096,
5815.118,0.04329178,
5813.189,0.04329375,
5811.260,0.04348917,
5809.331,0.04373415,
5807.403,0.04397175,
5805.474,0.0442084,
5803.545,0.04455134,
5801.616,0.04500695,
5799.688,0.0454172,
5797.759,0.04585782,
5795.830,0.04644134,
5793.902,0.04706328,
5791.973,0.04770085,
5790.044,0.0484029,
5788.115,0.04914073,
5786.187,0.04998747,
5784.258,0.05105295,
5782.329,0.05219609,
5780.400,0.05322504,
5778.472,0.05427497,
5776.543,0.05557118,
5774.614,0.05703636,
5772.686,0.05854683,
5770.757,0.0601532,
5768.828,0.06187571,
5766.899,0.06371842,
5764.971,0.06563369,
5763.042,0.06753123,
5761.113,0.06952035,
5759.184,0.0717179,
5757.256,0.07410517,
5755.327,0.07668664,
5753.398,0.07942135,
5751.470,0.08226056,
5749.541,0.08529264,
5747.612,0.08861101,
5745.683,0.09205717,
5743.755,0.09538202,
5741.826,0.0987254,
5739.897,0.102357,
5737.968,0.1061842,
5736.040,0.1101428,
5734.111,0.1143883,
5732.182,0.1188447,
5730.254,0.123276,
5728.325,0.1277321,
5726.396,0.1323519,
5724.467,0.1369464,
5722.539,0.141351,
5720.610,0.1457438,
5718.681,0.1502143,
5716.752,0.1546024,
5714.824,0.1588478,
5712.895,0.1629709,
5710.966,0.1667753,
5709.037,0.1700648,
5707.109,0.1728766,
5705.180,0.1751901,
5703.251,0.1768792,
5701.323,0.1779656,
5699.394,0.1784796,
5697.465,0.1782493,
5695.536,0.1771883,
5693.608,0.175441,
5691.679,0.1730988,
5689.750,0.170148,
5687.821,0.166562,
5685.893,0.1623781,
5683.964,0.1577296,
5682.035,0.1527348,
5680.107,0.1475497,
5678.178,0.1423199,
5676.249,0.1369768,
5674.320,0.1314387,
5672.392,0.1258423,
5670.463,0.1203938,
5668.534,0.1152187,
5666.605,0.1103049,
5664.677,0.1055612,
5662.748,0.1010017,
5660.819,0.09670069,
5658.891,0.09262609,
5656.962,0.08870002,
5655.033,0.08493815,
5653.104,0.08139861,
5651.176,0.0781202,
5649.247,0.07512236,
5647.318,0.07234935,
5645.389,0.06974982,
5643.461,0.06732266,
5641.532,0.06506127,
5639.603,0.06293278,
5637.675,0.06088573,
5635.746,0.05896023,
5633.817,0.0571936,
5631.888,0.055573,
5629.960,0.05414584,
5628.031,0.05284451,
5626.102,0.05155712,
5624.173,0.05035796,
5622.245,0.04930723,
5620.316,0.04834335,
5618.387,0.04742999,
5616.459,0.04656007,
5614.530,0.04574275,
5612.601,0.04502594,
5610.672,0.04438942,
5608.744,0.04374857,
5606.815,0.04309995,
5604.886,0.04251118,
5602.957,0.04203416,
5601.029,0.04174125,
5599.100,0.04162453,
5597.171,0.04144933,
5595.242,0.04112737,
5593.314,0.04090722,
5591.385,0.04085437,
5589.456,0.04077481,
5587.528,0.04061284,
5585.599,0.04046816,
5583.670,0.04047263,
5581.741,0.0406969,
5579.813,0.04104633,
5577.884,0.04137127,
5575.955,0.04160866,
5574.026,0.04183861,
5572.098,0.04222726,
5570.169,0.04279221,
5568.240,0.04336634,
5566.312,0.04388092,
5564.383,0.04443417,
5562.454,0.04507729,
5560.525,0.04580878,
5558.597,0.04665418,
5556.668,0.04757687,
5554.739,0.04849284,
5552.810,0.04944183,
5550.882,0.0505754,
5548.953,0.05187533,
5547.024,0.05317345,
5545.096,0.05443943,
5543.167,0.05575218,
5541.238,0.05721612,
5539.309,0.05891456,
5537.381,0.06083688,
5535.452,0.0629371,
5533.523,0.06514927,
5531.594,0.06741366,
5529.666,0.06973408,
5527.737,0.0721366,
5525.808,0.07466358,
5523.880,0.07744893,
5521.951,0.0805767,
5520.022,0.08384631,
5518.093,0.08712968,
5516.165,0.09065921,
5514.236,0.09452678,
5512.307,0.09848873,
5510.378,0.1023989,
5508.450,0.1064156,
5506.521,0.1107095,
5504.592,0.1152576,
5502.663,0.1200262,
5500.735,0.1249894,
5498.806,0.1300527,
5496.877,0.1350791,
5494.949,0.1399755,
5493.020,0.1448779,
5491.091,0.1499144,
5489.162,0.1549759,
5487.234,0.1599597,
5485.305,0.1647362,
5483.376,0.1690561,
5481.447,0.1728285,
5479.519,0.1760395,
5477.590,0.1784993,
5475.661,0.1803733,
5473.733,0.1820848,
5471.804,0.1832162,
5469.875,0.1831235,
5467.946,0.1820233,
5466.018,0.1802028,
5464.089,0.1775082,
5462.160,0.1740012,
5460.231,0.1700371,
5458.303,0.1657329,
5456.374,0.1610235,
5454.445,0.1559048,
5452.517,0.1503103,
5450.588,0.1443094,
5448.659,0.1381873,
5446.730,0.1321928,
5444.802,0.1264362,
5442.873,0.1208482,
5440.944,0.1154636,
5439.015,0.1102837,
5437.087,0.1050525,
5435.158,0.09999645,
5433.229,0.09546444,
5431.301,0.09110333,
5429.372,0.08684471,
5427.443,0.08309765,
5425.514,0.0797531,
5423.586,0.0765029,
5421.657,0.07335497,
5419.728,0.07038083,
5417.799,0.06753179,
5415.871,0.06476334,
5413.942,0.06222895,
5412.013,0.06004006,
5410.085,0.05809013,
5408.156,0.0563231,
5406.227,0.05472285,
5404.298,0.0532236,
5402.370,0.05180834,
5400.441,0.05043217,
5398.512,0.04901253,
5396.583,0.0475932,
5394.655,0.04632592,
5392.726,0.04532067,
5390.797,0.04450123,
5388.868,0.04367143,
5386.940,0.04284108,
5385.011,0.04214491,
5383.082,0.04152838,
5381.154,0.04089177,
5379.225,0.04024566,
5377.296,0.0396492,
5375.367,0.03916274,
5373.439,0.03880549,
5371.510,0.03855536,
5369.581,0.03833202,
5367.652,0.03805779,
5365.724,0.03778053,
5363.795,0.03759249,
5361.866,0.03751834,
5359.938,0.03754321,
5358.009,0.03758452,
5356.080,0.03752942,
5354.151,0.03746916,
5352.223,0.03760089,
5350.294,0.03789473,
5348.365,0.03815005,
5346.436,0.03831767,
5344.508,0.0386267,
5342.579,0.0391186,
5340.650,0.03949988,
5338.722,0.03982975,
5336.793,0.0404115,
5334.864,0.04114597,
5332.935,0.04182546,
5331.007,0.04250732,
5329.078,0.0432691,
5327.149,0.04414367,
5325.220,0.04520826,
5323.292,0.04639169,
5321.363,0.04754182,
5319.434,0.04864996,
5317.506,0.04983357,
5315.577,0.05125535,
5313.648,0.05286952,
5311.719,0.05446965,
5309.791,0.05607148,
5307.862,0.05782848,
5305.933,0.05980914,
5304.004,0.06200996,
5302.076,0.06435213,
5300.147,0.06675726,
5298.218,0.06928231,
5296.290,0.07201113,
5294.361,0.07487825,
5292.432,0.0778567,
5290.503,0.08113363,
5288.575,0.08476196,
5286.646,0.08851481,
5284.717,0.092342,
5282.788,0.09640594,
5280.860,0.1007237,
5278.931,0.1052488,
5277.002,0.1099683,
5275.073,0.1148102,
5273.145,0.1197229,
5271.216,0.1247406,
5269.287,0.129903,
5267.359,0.135069,
5265.430,0.1401396,
5263.501,0.1454297,
5261.572,0.1510612,
5259.644,0.1565405,
5257.715,0.1613637,
5255.786,0.1656101,
5253.857,0.1697941,
5251.929,0.1737046,
5250.000,0.1766303,
5248.071,0.1787931,
5246.143,0.1806069,
5244.214,0.1818033,
5242.285,0.1820891,
5240.356,0.1813591,
5238.428,0.1796007,
5236.499,0.1768819,
5234.570,0.1732559,
5232.641,0.1688648,
5230.713,0.1639585,
5228.784,0.1585282,
5226.855,0.1525285,
5224.927,0.1464237,
5222.998,0.1404993,
5221.069,0.1344576,
5219.140,0.1281981,
5217.212,0.1220175,
5215.283,0.1161402,
5213.354,0.1104744,
5211.425,0.1048698,
5209.497,0.09938043,
5207.568,0.09422805,
5205.639,0.08965381,
5203.711,0.08560112,
5201.782,0.0817469,
5199.853,0.0779296,
5197.924,0.07425115,
5195.996,0.07088271,
5194.067,0.06784612,
5192.138,0.06501658,
5190.209,0.06235289,
5188.281,0.059848,
5186.352,0.05747865,
5184.423,0.05536468,
5182.495,0.05354043,
5180.566,0.0518463,
5178.637,0.05021058,
5176.708,0.04866158,
5174.780,0.04722532,
5172.851,0.04590541,
5170.922,0.0446937,
5168.993,0.04358458,
5167.065,0.04254851,
5165.136,0.04155463,
5163.207,0.04059326,
5161.278,0.0396852,
5159.350,0.03887045,
5157.421,0.03818098,
5155.492,0.03762319,
5153.564,0.0371441,
5151.635,0.0366991,
5149.706,0.03628296,
5147.777,0.03585183,
5145.849,0.0354185,
5143.920,0.03507113,
5141.991,0.03479172,
5140.062,0.03453074,
5138.134,0.03432971,
5136.205,0.03421022,
5134.276,0.03413244,
5132.348,0.03406479,
5130.419,0.034015,
5128.490,0.03401583,
5126.561,0.03411233,
5124.633,0.03433092,
5122.704,0.03461242,
5120.775,0.03484498,
5118.846,0.03500314,
5116.918,0.03518035,
5114.989,0.03545957,
5113.060,0.0358577,
5111.132,0.03635634,
5109.203,0.03688173,
5107.274,0.03742239,
5105.345,0.03807724,
5103.417,0.03882302,
5101.488,0.03955536,
5099.559,0.04030921,
5097.630,0.04118612,
5095.702,0.04221221,
5093.773,0.0432841,
5091.844,0.0443346,
5089.916,0.04546787,
5087.987,0.04673213,
5086.058,0.0481009,
5084.129,0.04960656,
5082.201,0.05124224,
5080.272,0.05298501,
5078.343,0.05486757,
5076.414,0.05691917,
5074.486,0.0591227,
5072.557,0.06144826,
5070.628,0.06391472,
5068.700,0.06654186,
5066.771,0.06934069,
5064.842,0.0723689,
5062.913,0.07562843,
5060.985,0.07908129,
5059.056,0.08276879,
5057.127,0.08669572,
5055.198,0.09081303,
5053.270,0.09513685,
5051.341,0.09970599,
5049.412,0.1045265,
5047.483,0.1095896,
5045.555,0.114873,
5043.626,0.120314,
5041.697,0.1258906,
5039.769,0.1316468,
5037.840,0.1375478,
5035.911,0.1434938,
5033.982,0.1493704,
5032.054,0.1550689,
5030.125,0.1605867,
5028.196,0.1659337,
5026.267,0.1709583,
5024.339,0.1754503,
5022.410,0.1792932,
5020.481,0.1823954,
5018.553,0.1846488,
5016.624,0.185951,
5014.695,0.1862073,
5012.766,0.1853823,
5010.838,0.1834772,
5008.909,0.1805337,
5006.980,0.1766662,
5005.051,0.1719743,
5003.123,0.1665294,
5001.194,0.1604593,
4999.265,0.1539583,
4997.337,0.1472116,
4995.408,0.1403463,
4993.479,0.1334541,
4991.550,0.1266319,
4989.622,0.119978,
4987.693,0.1135776,
4985.764,0.1075164,
4983.835,0.1017914,
4981.907,0.09632151,
4979.978,0.09116148,
4978.049,0.08641103,
4976.121,0.08200072,
4974.192,0.07783226,
4972.263,0.07390983,
4970.334,0.07027002,
4968.406,0.06692697,
4966.477,0.06386362,
4964.548,0.06104934,
4962.619,0.05844953,
4960.691,0.05603491,
4958.762,0.05378438,
4956.833,0.05169091,
4954.904,0.04979019,
4952.976,0.0480844,
4951.047,0.04647838,
4949.118,0.0449174,
4947.190,0.04347898,
4945.261,0.0422132,
4943.332,0.04106081,
4941.403,0.03998365,
4939.475,0.0389666,
4937.546,0.03798243,
4935.617,0.03705023,
4933.688,0.03621707,
4931.760,0.03549496,
4929.831,0.03483251,
4927.902,0.03421358,
4925.974,0.03369801,
4924.045,0.03326139,
4922.116,0.03281552,
4920.187,0.03238109,
4918.259,0.03202101,
4916.330,0.0317276,
4914.401,0.03149439,
4912.472,0.03130282,
4910.544,0.03109449,
4908.615,0.03088679,
4906.686,0.03073121,
4904.758,0.03064111,
4902.829,0.03063919,
4900.900,0.03072316,
4898.971,0.03081551,
4897.043,0.03084527,
4895.114,0.030877,
4893.185,0.03102144,
4891.256,0.03127984,
4889.328,0.03160768,
4887.399,0.03195748,
4885.470,0.03227092,
4883.542,0.0325501,
4881.613,0.03288013,
4879.684,0.03334736,
4877.755,0.03395025,
4875.827,0.03461567,
4873.898,0.03528408,
4871.969,0.03597883,
4870.040,0.03675921,
4868.112,0.03762059,
4866.183,0.03855485,
4864.254,0.03959495,
4862.326,0.04071676,
4860.397,0.04188723,
4858.468,0.04314941,
4856.539,0.04451343,
4854.611,0.04597097,
4852.682,0.04758102,
4850.753,0.0493518,
4848.824,0.05124248,
4846.896,0.05326087,
4844.967,0.0554391,
4843.038,0.05780015,
4841.109,0.06032681,
4839.181,0.06301731,
4837.252,0.06591121,
4835.323,0.06901047,
4833.395,0.07232615,
4831.466,0.07590438,
4829.537,0.07974704,
4827.608,0.08382996,
4825.680,0.08815385,
4823.751,0.09272662,
4821.822,0.09755865,
4819.893,0.1026531,
4817.965,0.1079816,
4816.036,0.1135301,
4814.107,0.1192867,
4812.179,0.1251889,
4810.250,0.1312025,
4808.321,0.1373461,
4806.392,0.1435696,
4804.464,0.1497367,
4802.535,0.1557663,
4800.606,0.1616204,
4798.677,0.1671442,
4796.749,0.1721079,
4794.820,0.17634,
4792.891,0.1797346,
4790.963,0.1822146,
4789.034,0.1836976,
4787.105,0.184054,
4785.176,0.183147,
4783.248,0.1809741,
4781.319,0.1776509,
4779.390,0.1732804,
4777.461,0.1679941,
4775.533,0.1619858,
4773.604,0.1554149,
4771.675,0.1484119,
4769.747,0.1411473,
4767.818,0.1338046,
4765.889,0.1265242,
4763.960,0.1194197,
4762.032,0.1125845,
4760.103,0.106056,
4758.174,0.09985061,
4756.245,0.09402561,
4754.317,0.08861773,
4752.388,0.08357777,
4750.459,0.07885986,
4748.531,0.07447853,
4746.602,0.07043937,
4744.673,0.06672486,
4742.744,0.0633224,
4740.816,0.06020398,
4738.887,0.0573236,
4736.958,0.05467975,
4735.029,0.05229422,
4733.101,0.05009706,
4731.172,0.04800164,
4729.243,0.04603627,
4727.314,0.04424945,
4725.386,0.04261609,
4723.457,0.04109128,
4721.528,0.03966539,
4719.600,0.03836891,
4717.671,0.03723026,
4715.742,0.03620027,
4713.813,0.03519291,
4711.885,0.03421127,
4709.956,0.03331622,
4708.027,0.03252913,
4706.098,0.03183343,
4704.170,0.03120161,
4702.241,0.03060898,
4700.312,0.03004728,
4698.384,0.02953025,
4696.455,0.02907157,
4694.526,0.0286678,
4692.597,0.02831144,
4690.669,0.02800108,
4688.740,0.02775068,
4686.811,0.02755748,
4684.882,0.02736171,
4682.954,0.02713293,
4681.025,0.02694099,
4679.096,0.02684077,
4677.168,0.02679948,
4675.239,0.02679037,
4673.310,0.02683438,
4671.381,0.02693308,
4669.453,0.0270384,
4667.524,0.02712528,
4665.595,0.02725441,
4663.666,0.02749059,
4661.738,0.02780254,
4659.809,0.02810084,
4657.880,0.02835579,
4655.952,0.02863847,
4654.023,0.02900304,
4652.094,0.02942014,
4650.165,0.0298884,
4648.237,0.03044655,
4646.308,0.0310758,
4644.379,0.03174395,
4642.450,0.03245923,
4640.522,0.03323711,
4638.593,0.03412196,
4636.664,0.03512661,
4634.736,0.0361683,
4632.807,0.03722215,
4630.878,0.03836088,
4628.949,0.03962997,
4627.021,0.04103103,
4625.092,0.0425427,
4623.163,0.04414654,
4621.234,0.04585501,
4619.306,0.04772961,
4617.377,0.04981838,
4615.448,0.0520611,
4613.519,0.05441777,
4611.591,0.05696864,
4609.662,0.05976273,
4607.733,0.06274931,
4605.805,0.06592184,
4603.876,0.06935517,
4601.947,0.07305946,
4600.018,0.0770179,
4598.090,0.08128579,
4596.161,0.08589518,
4594.232,0.09081593,
4592.303,0.09601782,
4590.375,0.1015095,
4588.446,0.1072916,
4586.517,0.1133156,
4584.589,0.119553,
4582.660,0.1259871,
4580.731,0.132577,
4578.802,0.1392777,
4576.874,0.146008,
4574.945,0.1526422,
4573.016,0.1590369,
4571.087,0.1650566,
4569.159,0.1705542,
4567.230,0.1753265,
4565.301,0.1791741,
4563.373,0.1819464,
4561.444,0.1835065,
4559.515,0.1837323,
4557.586,0.1825689,
4555.658,0.1800445,
4553.729,0.1762155,
4551.800,0.1711773,
4549.871,0.165104,
4547.943,0.1582293,
4546.014,0.1507989,
4544.085,0.1430315,
4542.157,0.1351487,
4540.228,0.1273397,
4538.299,0.1196916,
4536.370,0.1122734,
4534.442,0.1051892,
4532.513,0.09850801,
4530.584,0.09225078,
4528.655,0.08643518,
4526.727,0.08105066,
4524.798,0.07607128,
4522.869,0.07151028,
4520.940,0.06733964,
4519.012,0.06348613,
4517.083,0.05992942,
4515.154,0.05668449,
4513.226,0.05375519,
4511.297,0.05109505,
4509.368,0.04863039,
4507.439,0.04634188,
4505.511,0.0442368,
4503.582,0.04230535,
4501.653,0.04054868,
4499.724,0.03895709,
4497.796,0.03749005,
4495.867,0.036116,
4493.938,0.03479772,
4492.010,0.03354698,
4490.081,0.03247348,
4488.152,0.03158833,
4486.223,0.03075151,
4484.295,0.02990062,
4482.366,0.02910484,
4480.437,0.02839784,
4478.508,0.027739,
4476.580,0.02712443,
4474.651,0.02658412,
4472.722,0.02612819,
4470.794,0.0257437,
4468.865,0.02540278,
4466.936,0.02507749,
4465.007,0.02472957,
4463.079,0.02436864,
4461.150,0.02406806,
4459.221,0.02386233,
4457.292,0.02372281,
4455.364,0.02360946,
4453.435,0.02351785,
4451.506,0.02344594,
4449.578,0.02338195,
4447.649,0.02335607,
4445.720,0.0233689,
4443.791,0.02337678,
4441.863,0.02340188,
4439.934,0.02349982,
4438.005,0.0236596,
4436.076,0.02382515,
4434.148,0.02398738,
4432.219,0.02420725,
4430.290,0.02452286,
4428.362,0.02489191,
4426.433,0.02528163,
4424.504,0.0256934,
4422.575,0.02609639,
4420.647,0.02649532,
4418.718,0.02697436,
4416.789,0.02758262,
4414.860,0.02828137,
4412.932,0.02901235,
4411.003,0.02974711,
4409.074,0.03050376,
4407.145,0.03134487,
4405.217,0.03230656,
4403.288,0.03335832,
4401.359,0.0344615,
4399.431,0.03563128,
4397.502,0.03693403,
4395.573,0.03840009,
4393.644,0.0399842,
4391.716,0.04165634,
4389.787,0.04344,
4387.858,0.04533768,
4385.929,0.04734488,
4384.001,0.04952595,
4382.072,0.05191552,
4380.143,0.05445634,
4378.215,0.05713442,
4376.286,0.05998774,
4374.357,0.06301098,
4372.428,0.06617481,
4370.500,0.06951929,
4368.571,0.07317544,
4366.642,0.07721002,
4364.713,0.08155173,
4362.785,0.08614559,
4360.856,0.09103618,
4358.927,0.09626601,
4356.999,0.1017805,
4355.070,0.1074997,
4353.141,0.1133991,
4351.212,0.1194192,
4349.284,0.1254495,
4347.355,0.1314465,
4345.426,0.1373829,
4343.497,0.1431596,
4341.569,0.1486499,
4339.640,0.1536666,
4337.711,0.1579705,
4335.783,0.1613406,
4333.854,0.163526,
4331.925,0.1642939,
4329.996,0.1635409,
4328.068,0.1612861,
4326.139,0.1576095,
4324.210,0.1526346,
4322.281,0.1466025,
4320.353,0.1398464,
4318.424,0.1326681,
4316.495,0.125266,
4314.567,0.1177695,
4312.638,0.1103617,
4310.709,0.1032342,
4308.780,0.09647614,
4306.852,0.09011323,
4304.923,0.08414625,
4302.994,0.07856776,
4301.065,0.0733979,
4299.137,0.06863506,
4297.208,0.06423554,
4295.279,0.06020556,
4293.350,0.05655058,
4291.422,0.05321082,
4289.493,0.0501494,
4287.564,0.0473729,
4285.636,0.04489636,
4283.707,0.04268601,
4281.778,0.04068885,
4279.849,0.03888622,
4277.921,0.03721068,
4275.992,0.03561569,
4274.063,0.03413478,
4272.134,0.03277762,
4270.206,0.03153662,
4268.277,0.03040346,
4266.348,0.02937064,
4264.420,0.02844008,
4262.491,0.02757332,
4260.562,0.02673038,
4258.633,0.02593644,
4256.705,0.02522388,
4254.776,0.02458103,
4252.847,0.02398688,
4250.918,0.02345172,
4248.990,0.02297821,
4247.061,0.0225233,
4245.132,0.02209607,
4243.204,0.02174719,
4241.275,0.02144185,
4239.346,0.02113596,
4237.417,0.02084303,
4235.489,0.02056542,
4233.560,0.02028978,
4231.631,0.02002598,
4229.702,0.01981794,
4227.774,0.01971047,
4225.845,0.01969282,
4223.916,0.01968444,
4221.988,0.01961974,
4220.059,0.01954262,
4218.130,0.01953594,
4216.201,0.01959739,
4214.273,0.01967178,
4212.344,0.0197417,
4210.415,0.01982657,
4208.486,0.01994296,
4206.558,0.02010321,
4204.629,0.02031118,
4202.700,0.02052158,
4200.772,0.02071392,
4198.843,0.02097939,
4196.914,0.02136452,
4194.985,0.02178065,
4193.057,0.02217053,
4191.128,0.02257835,
4189.199,0.02304498,
4187.270,0.0235589,
4185.342,0.02411493,
4183.413,0.02474948,
4181.484,0.02547985,
4179.555,0.02626017,
4177.627,0.02705738,
4175.698,0.02792305,
4173.769,0.0288995,
4171.841,0.02994174,
4169.912,0.03103277,
4167.983,0.03224545,
4166.054,0.03361282,
4164.126,0.03509416,
4162.197,0.03668138,
4160.268,0.0384032,
4158.339,0.0402954,
4156.411,0.04238045,
4154.482,0.04463026,
4152.553,0.04703861,
4150.625,0.0496476,
4148.696,0.05249925,
4146.767,0.05563689,
4144.838,0.05906053,
4142.910,0.06274518,
4140.981,0.06670415,
4139.052,0.07096754,
4137.123,0.0755587,
4135.195,0.08047426,
4133.266,0.08569274,
4131.337,0.09119757,
4129.409,0.09697936,
4127.480,0.1030485,
4125.551,0.1094065,
4123.622,0.1159923,
4121.694,0.1226967,
4119.765,0.1294087,
4117.836,0.1360066,
4115.907,0.1423271,
4113.979,0.1481644,
4112.050,0.1533049,
4110.121,0.157525,
4108.193,0.1605694,
4106.264,0.1622678,
4104.335,0.1625656,
4102.406,0.1613658,
4100.478,0.1585889,
4098.549,0.1543311,
4096.620,0.148781,
4094.691,0.1421512,
4092.763,0.1347131,
4090.834,0.1267949,
4088.905,0.1187304,
4086.977,0.1107475,
4085.048,0.1029797,
4083.119,0.09556784,
4081.190,0.08862914,
4079.262,0.08220775,
4077.333,0.0762797,
4075.404,0.07079839,
4073.475,0.06575733,
4071.547,0.06116832,
4069.618,0.05701505,
4067.689,0.05325416,
4065.760,0.04983067,
4063.832,0.04670464,
4061.903,0.04386184,
4059.974,0.04128115,
4058.046,0.03892988,
4056.117,0.0367964,
4054.188,0.03486978,
4052.259,0.03311598,
4050.331,0.03151324,
4048.402,0.03006382,
4046.473,0.02876436,
4044.544,0.0275957,
4042.616,0.026539,
4040.687,0.02557307,
4038.758,0.02465574,
4036.830,0.02376314,
4034.901,0.02292511,
4032.972,0.0221856,
4031.043,0.02154677,
4029.115,0.02094732,
4027.186,0.02034835,
4025.257,0.0198005,
4023.328,0.01935124,
4021.400,0.01897014,
4019.471,0.01859877,
4017.542,0.01822851,
4015.614,0.0178963,
4013.685,0.0176164,
4011.756,0.01735962,
4009.827,0.01710787,
4007.899,0.01687836,
4005.970,0.01667701,
4004.041,0.01651217,
4002.112,0.01640226,
4000.184,0.01632136,
3998.255,0.01623827,
3996.326,0.016155,
3994.398,0.01606586,
3992.469,0.01598765,
3990.540,0.01598579,
3988.611,0.01605803,
3986.683,0.01611171,
3984.754,0.01612834,
3982.825,0.01619089,
3980.896,0.01632684,
3978.968,0.01646204,
3977.039,0.01658805,
3975.110,0.01680823,
3973.181,0.01712005,
3971.253,0.01739343,
3969.324,0.01762032,
3967.395,0.01789865,
3965.467,0.0182362,
3963.538,0.01858266,
3961.609,0.01894719,
3959.680,0.01938204,
3957.752,0.01987823,
3955.823,0.02036941,
3953.894,0.0208538,
3951.965,0.02142259,
3950.037,0.0221321,
3948.108,0.022911,
3946.179,0.02367579,
3944.251,0.02446238,
3942.322,0.02538908,
3940.393,0.02651149,
3938.464,0.02772353,
3936.536,0.02889662,
3934.607,0.03010362,
3932.678,0.03155785,
3930.749,0.03332165,
3928.821,0.03525514,
3926.892,0.03727603,
3924.963,0.03944483,
3923.035,0.04179736,
3921.106,0.04429293,
3919.177,0.04705828,
3917.248,0.05044933,
3915.320,0.05453897,
3913.391,0.05893103,
3911.462,0.06339976,
3909.533,0.06800388,
3907.605,0.07251342,
3905.676,0.07688522,
3903.747,0.08184518,
3901.819,0.08798163,
3899.890,0.09533574,
3897.961,0.1036655,
3896.032,0.1119156,
3894.104,0.1189411,
3892.175,0.1255866,
3890.246,0.1330694,
3888.317,0.1398251,
3886.389,0.1451586,
3884.460,0.1506802,
3882.531,0.1554485,
3880.603,0.158418,
3878.674,0.1603384,
3876.745,0.1599551,
3874.816,0.1563064,
3872.888,0.1501477,
3870.959,0.1424686,
3869.030,0.1351118,
3867.101,0.1279676,
3865.173,0.1195947,
3863.244,0.1110462,
3861.315,0.1032308,
3859.386,0.09531971,
3857.458,0.08622186,
3855.529,0.07593524,
3853.600,0.06749682,
3851.672,0.06331474,
3849.743,0.06086927,
3847.814,0.05745701,
3845.885,0.05317241,
3843.957,0.04885889,
3842.028,0.04479573,
3840.099,0.04092323,
3838.170,0.03758689,
3836.242,0.03522814,
3834.313,0.03341944,
3832.384,0.0316952,
3830.456,0.03016821,
3828.527,0.02876575,
3826.598,0.02728375,
3824.669,0.02568392,
3822.741,0.02405631,
3820.812,0.02278986,
3818.883,0.02186587,
3816.954,0.02091111,
3815.026,0.02019586,
3813.097,0.01977425,
3811.168,0.01916089,
3809.240,0.01830388,
3807.311,0.01753979,
3805.382,0.01697,
3803.453,0.01629576,
3801.525,0.01563247,
3799.596,0.01533776,
3797.667,0.01518366,
3795.738,0.0149814,
3793.810,0.01479784,
3791.881,0.01462913,
3789.952,0.01444149,
3788.024,0.01420884,
3786.095,0.01398355,
3784.166,0.01381397,
3782.237,0.01366165,
3780.309,0.01350613,
3778.380,0.01340479,
3776.451,0.01333152,
3774.522,0.01320871,
3772.594,0.01304052,
3770.665,0.0128889,
3768.736,0.01286224,
3766.808,0.01292105,
3764.879,0.01292591,
3762.950,0.01284797,
3761.021,0.01275515,
3759.093,0.01276888,
3757.164,0.01286801,
3755.235,0.01284388,
3753.306,0.01261495,
3751.378,0.01246593,
3749.449,0.01265483,
3747.520,0.01290389,
3745.591,0.01301631,
3743.663,0.01336462,
3741.734,0.01400203,
3739.805,0.01443175,
3737.877,0.0145711,
3735.948,0.01474595,
3734.019,0.01514862,
3732.090,0.01579568,
3730.162,0.01654979,
3728.233,0.01719192,
3726.304,0.01772339,
3724.375,0.01834868,
3722.447,0.0191291,
3720.518,0.02000502,
3718.589,0.02092043,
3716.661,0.02178846,
3714.732,0.02249278,
3712.803,0.02314505,
3710.874,0.02420742,
3708.946,0.02578924,
3707.017,0.02750592,
3705.088,0.02906158,
3703.159,0.03055408,
3701.231,0.03236165,
3699.302,0.03455004,
3697.373,0.03689068,
3695.445,0.03924838,
3693.516,0.04150303,
3691.587,0.04357239,
3689.658,0.04610023,
3687.730,0.05011055,
3685.801,0.05521695,
3683.872,0.06023477,
3681.943,0.06491075,
3680.015,0.06922781,
3678.086,0.07287034,
3676.157,0.07708987,
3674.229,0.08322079,
3672.300,0.08964489,
3670.371,0.0959805,
3668.442,0.1037742,
3666.514,0.1118668,
3664.585,0.1184079,
3662.656,0.1233946,
3660.727,0.1268562,
3658.799,0.1281918,
3656.870,0.1280815,
3654.941,0.1274778,
3653.013,0.124588,
3651.084,0.1185354,
3649.155,0.1124631,
3647.226,0.1084088,
3645.298,0.1044916,
3643.369,0.09891597,
3641.440,0.09206359,
3639.511,0.08493038,
3637.583,0.07796902,
3635.654,0.0713224,
3633.725,0.06498021,
3631.796,0.05863706,
3629.868,0.05264907,
3627.939,0.04836326,
3626.010,0.04559716,
3624.082,0.04276856,
3622.153,0.03942282,
3620.224,0.03614394,
3618.295,0.03355208,
3616.367,0.03153937,
3614.438,0.02959204,
3612.509,0.02764795,
3610.580,0.02586175,
3608.652,0.02435776,
3606.723,0.02318912,
3604.794,0.02216739,
3602.866,0.02108633,
3600.937,0.0199947,
3599.008,0.01899184,
3597.079,0.01809225,
3595.151,0.01731307,
3593.222,0.01663524,
3591.293,0.01595842,
3589.364,0.01522962,
3587.436,0.01461605,
3585.507,0.01423053,
3583.578,0.01392254,
3581.650,0.01354284,
3579.721,0.01309352,
3577.792,0.01266688,
3575.863,0.01231364,
3573.935,0.01202284,
3572.006,0.0117386,
3570.077,0.01140114,
3568.148,0.01106333,
3566.220,0.01084341,
3564.291,0.01073769,
3562.362,0.01062775,
3560.434,0.0104797,
3558.505,0.01033317,
3556.576,0.0102014,
3554.647,0.01007416,
3552.719,0.00994781,
3550.790,0.009842712,
3548.861,0.009761196,
3546.932,0.009714934,
3545.004,0.009715919,
3543.075,0.009724463,
3541.146,0.009709263,
3539.217,0.009702723,
3537.289,0.009743779,
3535.360,0.009797302,
3533.431,0.009821328,
3531.503,0.0098416,
3529.574,0.00989104,
3527.645,0.009955478,
3525.716,0.01003255,
3523.788,0.01015759,
3521.859,0.01033304,
3519.930,0.01052426,
3518.001,0.0106947,
3516.073,0.01084747,
3514.144,0.01102557,
3512.215,0.01123971,
3510.287,0.01146661,
3508.358,0.01170905,
3506.429,0.01198947,
3504.500,0.0123136,
3502.572,0.01267888,
3500.643,0.01307891,
3498.714,0.01352585,
3496.785,0.01403041,
3494.857,0.01456861,
3492.928,0.01514894,
3490.999,0.01579691,
3489.071,0.01649478,
3487.142,0.01723108,
3485.213,0.01804342,
3483.284,0.01896715,
3481.356,0.02000751,
3479.427,0.02116136,
3477.498,0.02240151,
3475.569,0.02373215,
3473.641,0.02522133,
3471.712,0.02691163,
3469.783,0.02880112,
3467.855,0.03088874,
3465.926,0.03317659,
3463.997,0.03568402,
3462.068,0.03847205,
3460.140,0.04157335,
3458.211,0.0449856,
3456.282,0.04872982,
3454.353,0.05277942,
3452.425,0.05707124,
3450.496,0.06157413,
3448.567,0.06628329,
3446.639,0.07120345,
3444.710,0.07624228,
3442.781,0.08120868,
3440.852,0.08590555,
3438.924,0.0901144,
3436.995,0.09359251,
3435.066,0.09607102,
3433.137,0.09730426,
3431.209,0.09714434,
3429.280,0.09552009,
3427.351,0.09248521,
3425.422,0.08825047,
3423.494,0.0831006,
3421.565,0.07740242,
3419.636,0.07158525,
3417.708,0.0659532,
3415.779,0.06065989,
3413.850,0.05587154,
3411.921,0.05173147,
3409.993,0.04823554,
3408.064,0.04529799,
3406.135,0.04284284,
3404.206,0.04077171,
3402.278,0.03894001,
3400.349,0.03721321,
3398.420,0.03549329,
3396.492,0.03370899,
3394.563,0.03184573,
3392.634,0.02996203,
3390.705,0.02813409,
3388.777,0.02638874,
3386.848,0.02471568,
3384.919,0.0231266,
3382.990,0.02165881,
3381.062,0.02033373,
3379.133,0.01914914,
3377.204,0.01808667,
3375.276,0.01711788,
3373.347,0.01621945,
3371.418,0.01538461,
3369.489,0.01463464,
3367.561,0.01397101,
3365.632,0.01335589,
3363.703,0.01279047,
3361.774,0.01229195,
3359.846,0.0118354,
3357.917,0.01141454,
3355.988,0.01104796,
3354.060,0.01071699,
3352.131,0.01039403,
3350.202,0.01007747,
3348.273,0.009776045,
3346.345,0.009507214,
3344.416,0.009280332,
3342.487,0.009081698,
3340.558,0.008897046,
3338.630,0.008732563,
3336.701,0.008598096,
3334.772,0.008477788,
3332.844,0.008356448,
3330.915,0.008239767,
3328.986,0.00812568,
3327.057,0.008014048,
3325.129,0.007924451,
3323.200,0.007871417,
3321.271,0.007842048,
3319.342,0.007817637,
3317.414,0.00780262,
3315.485,0.007815114,
3313.556,0.007857242,
3311.627,0.007897113,
3309.699,0.007906741,
3307.770,0.007905677,
3305.841,0.007929931,
3303.913,0.007993716,
3301.984,0.008083503,
3300.055,0.008174475,
3298.126,0.008265673,
3296.198,0.008378478,
3294.269,0.008515179,
3292.340,0.00865648,
3290.411,0.008802717,
3288.483,0.008981861,
3286.554,0.009203485,
3284.625,0.009437304,
3282.697,0.009660982,
3280.768,0.009891811,
3278.839,0.01016558,
3276.910,0.01050672,
3274.982,0.01089557,
3273.053,0.01130292,
3271.124,0.01173844,
3269.195,0.01221441,
3267.267,0.01274195,
3265.338,0.01333842,
3263.409,0.01398661,
3261.481,0.01467165,
3259.552,0.01542291,
3257.623,0.01626083,
3255.694,0.01719818,
3253.766,0.01826891,
3251.837,0.01947134,
3249.908,0.02078513,
3247.979,0.02224518,
3246.051,0.02389373,
3244.122,0.02573807,
3242.193,0.02779508,
3240.265,0.03009557,
3238.336,0.03266572,
3236.407,0.03553804,
3234.478,0.03875313,
3232.550,0.04234645,
3230.621,0.0463392,
3228.692,0.05074878,
3226.763,0.05556789,
3224.835,0.06075374,
3222.906,0.06629362,
3220.977,0.07217778,
3219.049,0.07830364,
3217.120,0.08450194,
3215.191,0.09058607,
3213.262,0.09629814,
3211.334,0.1012636,
3209.405,0.1050716,
3207.476,0.1073659,
3205.547,0.1078542,
3203.619,0.1063562,
3201.690,0.1028888,
3199.761,0.09768683,
3197.832,0.09119571,
3195.904,0.08395773,
3193.975,0.07642534,
3192.046,0.06896027,
3190.118,0.06188812,
3188.189,0.05541018,
3186.260,0.04959274,
3184.331,0.04445213,
3182.403,0.03993841,
3180.474,0.03595034,
3178.545,0.03245088,
3176.616,0.02945723,
3174.688,0.02691393,
3172.759,0.02470078,
3170.830,0.02274589,
3168.902,0.02102081,
3166.973,0.0194926,
3165.044,0.01814853,
3163.115,0.01697087,
3161.187,0.0159125,
3159.258,0.01496356,
3157.329,0.01413304,
3155.400,0.01336583,
3153.472,0.01263057,
3151.543,0.01198701,
3149.614,0.01143896,
3147.686,0.01091671,
3145.757,0.01040602,
3143.828,0.009928525,
3141.899,0.009491962,
3139.971,0.009110278,
3138.042,0.008791348,
3136.113,0.008516019,
3134.184,0.008260666,
3132.256,0.00801449,
3130.327,0.007776125,
3128.398,0.007547673,
3126.470,0.007332943,
3124.541,0.007147523,
3122.612,0.006998925,
3120.683,0.006869365,
3118.755,0.006740771,
3116.826,0.006608018,
3114.897,0.006485354,
3112.968,0.006393516,
3111.040,0.006337713,
3109.111,0.00630237,
3107.182,0.006259969,
3105.253,0.006209902,
3103.325,0.006181551,
3101.396,0.006184082,
3099.467,0.006194821,
3097.539,0.006199759,
3095.610,0.00621205,
3093.681,0.006242162,
3091.752,0.006293238,
3089.824,0.006364594,
3087.895,0.006439249,
3085.966,0.006509025,
3084.037,0.006582415,
3082.109,0.006677122,
3080.180,0.006811613,
3078.251,0.006977624,
3076.323,0.007163869,
3074.394,0.007372947,
3072.465,0.007595849,
3070.536,0.007822353,
3068.608,0.008073851,
3066.679,0.008379598,
3064.750,0.0087283,
3062.821,0.009112325,
3060.893,0.009551222,
3058.964,0.01004208,
3057.035,0.01057612,
3055.107,0.01117457,
3053.178,0.01188047,
3051.249,0.01271429,
3049.320,0.01366002,
3047.392,0.01473585,
3045.463,0.01600398,
3043.534,0.01749012,
3041.605,0.01919458,
3039.677,0.02116817,
3037.748,0.0234671,
3035.819,0.0260908,
3033.891,0.02906105,
3031.962,0.03245761,
3030.033,0.03630796,
3028.104,0.04056386,
3026.176,0.04517651,
3024.247,0.05005986,
3022.318,0.0550162,
3020.389,0.05968847,
3018.461,0.06352774,
3016.532,0.06588924,
3014.603,0.06619318,
3012.675,0.06409068,
3010.746,0.05966026,
3008.817,0.05348705,
3006.888,0.04646658,
3004.960,0.03944367,
3003.031,0.03298695,
3001.102,0.02737887,
2999.173,0.02269153,
2997.245,0.01886456,
2995.316,0.01576523,
2993.387,0.01325934,
2991.458,0.01124163,
2989.530,0.009602871,
2987.601,0.008253257,
2985.672,0.007157008,
2983.744,0.006275607,
2981.815,0.005542235,
2979.886,0.004904344,
2977.957,0.004332974,
2976.029,0.003816017,
2974.100,0.003337755,
2972.171,0.002870214,
2970.242,0.002427372,
2968.314,0.002038581,
2966.385,0.001667413,
2964.456,0.001300819,
2962.528,0.001006067,
2960.599,0.0008012863,
2958.670,0.0006392179,
2956.741,0.0005100913,
2954.813,0.0004190853,
2952.884,0.0003447981,
2950.955,0.0002761836,
2949.026,0.0002164562,
2947.098,0.0001746642,
2945.169,0.0001490743,
2943.240,0.000133186,
2941.312,0.000122532,
2939.383,0.0001172558,
2937.454,0.0001160221,
2935.525,0.0001183137,
2933.597,0.0001245726,
2931.668,0.0001454113,
2929.739,0.0002062473,
2927.810,0.0003010079,
2925.882,0.0004073045,
2923.953,0.0005371896,
2922.024,0.0007283341,
2920.096,0.001008137,
2918.167,0.001360578,
2916.238,0.001755436,
2914.309,0.002180147,
2912.381,0.002604313,
2910.452,0.002969675,
2908.523,0.00324961,
2906.594,0.003481859,
2904.666,0.003723691,
2902.737,0.003978571,
2900.808,0.004199461,
2898.880,0.004366564,
2896.951,0.004497899,
2895.022,0.004581339,
2893.093,0.00457723,
2891.165,0.004483861,
2889.236,0.00432823,
2887.307,0.004110466,
2885.378,0.003828554,
2883.450,0.00352176,
2881.521,0.003222557,
2879.592,0.002925225,
2877.663,0.002611025,
2875.735,0.002273744,
2873.806,0.001937821,
2871.877,0.001629811,
2869.949,0.001349419,
2868.020,0.001102663,
2866.091,0.0009071574,
2864.162,0.0007893226,
2862.234,0.000804603,
2860.305,0.0009824776,
2858.376,0.001323806,
2856.447,0.001861567,
2854.519,0.00260995,
2852.590,0.003534241,
2850.661,0.004562579,
2848.733,0.005518806,
2846.804,0.006167782,
2844.875,0.006415172,
2842.946,0.006347845,
2841.018,0.006090449,
2839.089,0.005747238,
2837.160,0.005413239,
2835.231,0.005120825,
2833.303,0.004844284,
2831.374,0.004593731,
2829.445,0.004410479,
2827.517,0.004293772,
2825.588,0.004213774,
2823.659,0.004152343,
2821.730,0.004108467,
2819.802,0.004090642,
2817.873,0.004089252,
2815.944,0.004074286,
2814.015,0.00404014,
2812.087,0.004015395,
2810.158,0.004010852,
2808.229,0.004016042,
2806.301,0.004033142,
2804.372,0.004056473,
2802.443,0.004075689,
2800.514,0.004103923,
2798.586,0.004152864,
2796.657,0.004207287,
2794.728,0.004262097,
2792.799,0.004344835,
2790.871,0.004467297,
2788.942,0.004611506,
2787.013,0.004759858,
2785.085,0.00491085,
2783.156,0.005087262,
2781.227,0.005299471,
2779.298,0.00551991,
2777.370,0.005738816,
2775.441,0.005984766,
2773.512,0.006281232,
2771.583,0.006634016,
2769.655,0.007030772,
2767.726,0.007450677,
2765.797,0.007903809,
2763.868,0.008423022,
2761.940,0.009023816,
2760.011,0.009708621,
2758.082,0.01049482,
2756.154,0.0114158,
2754.225,0.01250835,
2752.296,0.01379421,
2750.367,0.01527518,
2748.439,0.01698535,
2746.510,0.01900255,
2744.581,0.0213826,
2742.652,0.02414792,
2740.724,0.02732606,
2738.795,0.03095415,
2736.866,0.03506542,
2734.938,0.03970053,
2733.009,0.04490187,
2731.080,0.0506815,
2729.151,0.05700392,
2727.223,0.06370042,
2725.294,0.07035644,
2723.365,0.07633922,
2721.436,0.08090839,
2719.508,0.08335467,
2717.579,0.08320031,
2715.650,0.08038473,
2713.722,0.07529677,
2711.793,0.06860267,
2709.864,0.06106044,
2707.935,0.05340511,
2706.007,0.04620479,
2704.078,0.03978558,
2702.149,0.03426435,
2700.220,0.02960126,
2698.292,0.02569179,
2696.363,0.02243471,
2694.434,0.01971401,
2692.506,0.01741867,
2690.577,0.01548656,
2688.648,0.01386319,
2686.719,0.01248596,
2684.791,0.01130714,
2682.862,0.01028893,
2680.933,0.00941664,
2679.004,0.008688818,
2677.076,0.008102353,
2675.147,0.007647267,
2673.218,0.007280016,
2671.290,0.006957314,
2669.361,0.006667048,
2667.432,0.006405587,
2665.503,0.006171918,
2663.575,0.005938229,
2661.646,0.005664004,
2659.717,0.005373031,
2657.788,0.005119544,
2655.860,0.004918228,
2653.931,0.004745569,
2652.002,0.004568828,
2650.073,0.004391924,
2648.145,0.004241469,
2646.216,0.004121858,
2644.287,0.004014978,
2642.359,0.0038987,
2640.430,0.003778766,
2638.501,0.003682756,
2636.572,0.003625218,
2634.644,0.00358324,
2632.715,0.00350611,
2630.786,0.003400229,
2628.857,0.003325805,
2626.929,0.003283846,
2625.000,0.00323346,
2623.071,0.003173075,
2621.143,0.003125175,
2619.214,0.003093861,
2617.285,0.003066119,
2615.356,0.003049018,
2613.428,0.00305496,
2611.499,0.003050898,
2609.570,0.00303088,
2607.641,0.003061945,
2605.713,0.003142128,
2603.784,0.003185277,
2601.855,0.003180711,
2599.927,0.003181579,
2597.998,0.003201627,
2596.069,0.003237043,
2594.140,0.00329175,
2592.212,0.003347346,
2590.283,0.003374835,
2588.354,0.003388067,
2586.425,0.003429801,
2584.497,0.003492361,
2582.568,0.003545049,
2580.639,0.003625942,
2578.711,0.003767763,
2576.782,0.003911894,
2574.853,0.004015344,
2572.924,0.004110697,
2570.996,0.004228715,
2569.067,0.004368567,
2567.138,0.004534415,
2565.209,0.004749642,
2563.281,0.005000227,
2561.352,0.005249172,
2559.423,0.005508448,
2557.494,0.00580172,
2555.566,0.006127537,
2553.637,0.006485226,
2551.708,0.006903913,
2549.780,0.007405377,
2547.851,0.007948072,
2545.922,0.008509069,
2543.993,0.009159848,
2542.065,0.00997546,
2540.136,0.01093108,
2538.207,0.01197249,
2536.278,0.01313223,
2534.350,0.01447621,
2532.421,0.01603188,
2530.492,0.01783152,
2528.564,0.01993981,
2526.635,0.0224142,
2524.706,0.02529107,
2522.777,0.02862247,
2520.849,0.03248967,
2518.920,0.03697684,
2516.991,0.04211855,
2515.062,0.04785129,
2513.134,0.05401725,
2511.205,0.060387,
2509.276,0.06658838,
2507.348,0.07202135,
2505.419,0.07595342,
2503.490,0.07769338,
2501.561,0.07678171,
2499.633,0.07321417,
2497.704,0.06747594,
2495.775,0.06037888,
2493.846,0.05283541,
2491.918,0.04558963,
2489.989,0.03906294,
2488.060,0.03340384,
2486.132,0.02861377,
2484.203,0.02463282,
2482.274,0.02135522,
2480.345,0.01864262,
2478.417,0.0163797,
2476.488,0.01448886,
2474.559,0.01290809,
2472.630,0.01158912,
2470.702,0.01048277,
2468.773,0.009533359,
2466.844,0.008704743,
2464.916,0.007988149,
2462.987,0.007379698,
2461.058,0.006857861,
2459.129,0.006387598,
2457.201,0.005958533,
2455.272,0.005586231,
2453.343,0.00525533,
2451.414,0.004942888,
2449.486,0.004665298,
2447.557,0.00442543,
2445.628,0.004203213,
2443.699,0.00399645,
2441.771,0.003804976,
2439.842,0.003630191,
2437.913,0.003487479,
2435.985,0.003370024,
2434.056,0.003251865,
2432.127,0.003139556,
2430.198,0.003044306,
2428.270,0.002948949,
2426.341,0.002853432,
2424.412,0.002772822,
2422.483,0.002699969,
2420.555,0.002634661,
2418.626,0.002588492,
2416.697,0.002545428,
2414.769,0.002488905,
2412.840,0.002431832,
2410.911,0.002390479,
2408.982,0.002364528,
2407.054,0.00233465,
2405.125,0.002295685,
2403.196,0.002274182,
2401.267,0.002278607,
2399.339,0.002277598,
2397.410,0.002250873,
2395.481,0.002213866,
2393.553,0.002190163,
2391.624,0.002197221,
2389.695,0.002223524,
2387.766,0.002238924,
2385.838,0.002247318,
2383.909,0.002255481,
2381.980,0.002251702,
2380.051,0.002239254,
2378.123,0.002219305,
2376.194,0.00219201,
2374.265,0.002175388,
2372.337,0.002173082,
2370.408,0.002171824,
2368.479,0.002171132,
2366.550,0.002180032,
2364.622,0.002205862,
2362.693,0.002239564,
2360.764,0.002267691,
2358.835,0.002320448,
2356.907,0.002430726,
2354.978,0.002575424,
2353.049,0.0027194,
2351.121,0.002848256,
2349.192,0.002957377,
2347.263,0.003040176,
2345.334,0.003104099,
2343.406,0.003194067,
2341.477,0.003338884,
2339.548,0.003509096,
2337.619,0.003670643,
2335.691,0.003831558,
2333.762,0.004029895,
2331.833,0.004288374,
2329.904,0.004596991,
2327.976,0.004940134,
2326.047,0.005320237,
2324.118,0.005763648,
2322.190,0.00630251,
2320.261,0.006947749,
2318.332,0.007691578,
2316.403,0.008540242,
2314.475,0.009519817,
2312.546,0.01066053,
2310.617,0.01200481,
2308.688,0.01359798,
2306.760,0.01546708,
2304.831,0.01763453,
2302.902,0.02015574,
2300.974,0.02310389,
2299.045,0.02649412,
2297.116,0.03029115,
2295.187,0.03447469,
2293.259,0.03903548,
2291.330,0.04392374,
2289.401,0.04898382,
2287.472,0.0538767,
2285.544,0.05803081,
2283.615,0.06070317,
2281.686,0.06120329,
2279.758,0.05922421,
2277.829,0.05504464,
2275.900,0.04940769,
2273.971,0.04319914,
2272.043,0.03715372,
2270.114,0.03170994,
2268.185,0.02701199,
2266.256,0.02302841,
2264.328,0.01969279,
2262.399,0.01693064,
2260.470,0.01464526,
2258.542,0.01275837,
2256.613,0.01121443,
2254.684,0.009938492,
2252.755,0.008865437,
2250.827,0.007967999,
2248.898,0.00720389,
2246.969,0.006539972,
2245.040,0.00598458,
2243.112,0.005515882,
2241.183,0.005095727,
2239.254,0.004722917,
2237.326,0.004393489,
2235.397,0.004095831,
2233.468,0.003838501,
2231.539,0.003617995,
2229.611,0.003409567,
2227.682,0.003206418,
2225.753,0.003023485,
2223.824,0.002877559,
2221.896,0.002770541,
2219.967,0.002678577,
2218.038,0.002574086,
2216.109,0.002463053,
2214.181,0.002366129,
2212.252,0.002273474,
2210.323,0.002179286,
2208.395,0.002104827,
2206.466,0.002042164,
2204.537,0.001966425,
2202.608,0.001899997,
2200.680,0.001868571,
2198.751,0.001840491,
2196.822,0.001794633,
2194.893,0.00175235,
2192.965,0.001722907,
2191.036,0.001713303,
2189.107,0.001717657,
2187.179,0.001701706,
2185.250,0.001661987,
2183.321,0.001618196,
2181.392,0.001574794,
2179.464,0.001544274,
2177.535,0.001538864,
2175.606,0.001538982,
2173.677,0.00152601,
2171.749,0.001512364,
2169.820,0.001510687,
2167.891,0.001513455,
2165.963,0.001517462,
2164.034,0.001519591,
2162.105,0.001517357,
2160.176,0.001528908,
2158.248,0.001556681,
2156.319,0.001576107,
2154.390,0.001581079,
2152.461,0.001590093,
2150.533,0.00161914,
2148.604,0.001659833,
2146.675,0.001692485,
2144.747,0.001723637,
2142.818,0.001769811,
2140.889,0.001816557,
2138.960,0.001846103,
2137.032,0.001870062,
2135.103,0.001906571,
2133.174,0.001964688,
2131.245,0.002037399,
2129.317,0.002107365,
2127.388,0.002177897,
2125.459,0.002266249,
2123.530,0.002367632,
2121.602,0.002465376,
2119.673,0.002560444,
2117.744,0.002672197,
2115.816,0.002811967,
2113.887,0.002975027,
2111.958,0.003167403,
2110.029,0.003396733,
2108.101,0.003645934,
2106.172,0.003903713,
2104.243,0.004182815,
2102.314,0.004502425,
2100.386,0.004883876,
2098.457,0.005343725,
2096.528,0.005877551,
2094.600,0.006475456,
2092.671,0.007167625,
2090.742,0.007998274,
2088.813,0.00898238,
2086.885,0.01015319,
2084.956,0.01158599,
2083.027,0.01335621,
2081.098,0.0155064,
2079.170,0.01806028,
2077.241,0.02104672,
2075.312,0.02444393,
2073.384,0.02809924,
2071.455,0.03174559,
2069.526,0.03507413,
2067.597,0.03778057,
2065.669,0.03967463,
2063.740,0.04077538,
2061.811,0.04116821,
2059.882,0.04079474,
2057.954,0.03944504,
2056.025,0.03694712,
2054.096,0.03338705,
2052.168,0.0291736,
2050.239,0.0248702,
2048.310,0.02092016,
2046.381,0.01753159,
2044.453,0.01473672,
2042.524,0.01246543,
2040.595,0.01062725,
2038.666,0.009156875,
2036.738,0.007983243,
2034.809,0.007020605,
2032.880,0.00620885,
2030.952,0.005525652,
2029.023,0.004955049,
2027.094,0.004472697,
2025.165,0.004062824,
2023.237,0.003725875,
2021.308,0.003445403,
2019.379,0.003184426,
2017.450,0.002946813,
2015.522,0.002759299,
2013.593,0.002608193,
2011.664,0.002473389,
2009.735,0.002345037,
2007.807,0.002206329,
2005.878,0.002068619,
2003.949,0.001954746,
2002.021,0.001860714,
2000.092,0.001774798,
1998.163,0.001692705,
1996.234,0.001614846,
1994.306,0.001550049,
1992.377,0.001495385,
1990.448,0.001433358,
1988.519,0.001370841,
1986.591,0.001323832,
1984.662,0.001288127,
1982.733,0.001265717,
1980.805,0.001255463,
1978.876,0.001232153,
1976.947,0.001189649,
1975.018,0.001163906,
1973.090,0.001168228,
1971.161,0.001164506,
1969.232,0.001127546,
1967.303,0.001085149,
1965.375,0.001072057,
1963.446,0.001080663,
1961.517,0.001087784,
1959.589,0.00108126,
1957.660,0.001065204,
1955.731,0.001059564,
1953.802,0.001065435,
1951.874,0.001072719,
1949.945,0.001084001,
1948.016,0.001091946,
1946.087,0.001082412,
1944.159,0.001063068,
1942.230,0.001055786,
1940.301,0.001065501,
1938.373,0.001078958,
1936.444,0.001077796,
1934.515,0.001068303,
1932.586,0.001078727,
1930.658,0.001111887,
1928.729,0.001147511,
1926.800,0.001169966,
1924.871,0.001182498,
1922.943,0.00119869,
1921.014,0.001220754,
1919.085,0.001247907,
1917.157,0.001293948,
1915.228,0.001367395,
1913.299,0.001443772,
1911.370,0.001502952,
1909.442,0.00155741,
1907.513,0.001625424,
1905.584,0.001717046,
1903.655,0.001834195,
1901.727,0.001968879,
1899.798,0.002102164,
1897.869,0.00222917,
1895.940,0.0023779,
1894.012,0.002569184,
1892.083,0.002787693,
1890.154,0.003026091,
1888.226,0.00330595,
1886.297,0.003633066,
1884.368,0.004019171,
1882.439,0.004499195,
1880.511,0.005073725,
1878.582,0.005725562,
1876.653,0.006469585,
1874.724,0.007335551,
1872.796,0.008324217,
1870.867,0.009471174,
1868.938,0.01097058,
1867.010,0.01302967,
1865.081,0.01566221,
1863.152,0.01882098,
1861.223,0.02246492,
1859.295,0.02636895,
1857.366,0.02998576,
1855.437,0.03251122,
1853.508,0.03315891,
1851.580,0.03155152,
1849.651,0.02803087,
1847.722,0.023483,
1845.794,0.01883126,
1843.865,0.01483534,
1841.936,0.01185075,
1840.007,0.009637988,
1838.079,0.007891574,
1836.150,0.006526454,
1834.221,0.005473995,
1832.292,0.004641031,
1830.364,0.003977197,
1828.435,0.003464314,
1826.506,0.003047975,
1824.578,0.002688773,
1822.649,0.002393246,
1820.720,0.002151202,
1818.791,0.001936424,
1816.863,0.001738618,
1814.934,0.001583833,
1813.005,0.00147558,
1811.076,0.001379533,
1809.148,0.001301048,
1807.219,0.001251528,
1805.290,0.001203566,
1803.362,0.001147395,
1801.433,0.001097167,
1799.504,0.001042817,
1797.575,0.0009881146,
1795.647,0.000952335,
1793.718,0.0009182747,
1791.789,0.0008706099,
1789.860,0.0008268501,
1787.932,0.0007973433,
1786.003,0.0007736949,
1784.074,0.0007511274,
1782.145,0.0007236737,
1780.217,0.0006905245,
1778.288,0.0006709164,
1776.359,0.0006680131,
1774.431,0.0006743383,
1772.502,0.0006964696,
1770.573,0.0007150275,
1768.644,0.0006971486,
1766.716,0.0006685929,
1764.787,0.0006742773,
1762.858,0.0007054865,
1760.929,0.0007413535,
1759.001,0.0007823675,
1757.072,0.000840593,
1755.143,0.0009229095,
1753.215,0.00100264,
1751.286,0.001073477,
1749.357,0.001192912,
1747.428,0.001408964,
1745.500,0.001708849,
1743.571,0.002014301,
1741.642,0.002174834,
1739.713,0.002046039,
1737.785,0.001644197,
1735.856,0.001136647,
1733.927,0.0006912639,
1731.999,0.0003956138,
1730.070,0.0002286006,
1728.141,0.0001289827,
1726.212,7.1513E-5,
1724.284,5.548956E-5,
1722.355,4.906223E-5,
1720.426,2.743862E-5,
1718.497,4.264869E-5,
1716.569,4.25908E-5,
1714.640,2.882399E-5,
1712.711,3.604279E-5,
1710.783,3.987211E-5,
1708.854,4.073752E-5,
1706.925,2.766475E-5,
1704.996,3.536979E-5,
1703.068,4.968276E-5,
1701.139,5.136287E-5,
1699.210,8.489678E-5,
1697.281,0.0001832988,
1695.353,0.0003650395,
1693.424,0.0006694081,
1691.495,0.001137509,
1689.567,0.001717128,
1687.638,0.00214483,
1685.709,0.00216765,
1683.780,0.001866506,
1681.852,0.001514403,
1679.923,0.00123472,
1677.994,0.001033301,
1676.065,0.0009073792,
1674.137,0.000840411,
1672.208,0.0007927727,
1670.279,0.000746723,
1668.350,0.0007191441,
1666.422,0.0006994302,
1664.493,0.00067146,
1662.564,0.0006477571,
1660.636,0.0006355374,
1658.707,0.0006185013,
1656.778,0.0005746543,
1654.849,0.0005134027,
1652.921,0.0004942298,
1650.992,0.0005384617,
1649.063,0.0005804931,
1647.134,0.0006004482,
1645.206,0.0006289794,
1643.277,0.0006542968,
1641.348,0.0006528714,
1639.420,0.0006350801,
1637.491,0.0006187295,
1635.562,0.000622999,
1633.633,0.000652449,
1631.705,0.000679746,
1629.776,0.0006915354,
1627.847,0.0007126865,
1625.918,0.0007601042,
1623.990,0.000823386,
1622.061,0.0009017577,
1620.132,0.0009870437,
1618.204,0.001057779,
1616.275,0.001145912,
1614.346,0.001260776,
1612.417,0.001361661,
1610.489,0.001463801,
1608.560,0.001611918,
1606.631,0.001809269,
1604.702,0.002047439,
1602.774,0.002337843,
1600.845,0.002706169,
1598.916,0.003175037,
1596.988,0.003745075,
1595.059,0.004438099,
1593.130,0.005291301,
1591.201,0.006306058,
1589.273,0.00753138,
1587.344,0.009104214,
1585.415,0.01111333,
1583.486,0.01346106,
1581.558,0.01579835,
1579.629,0.01750314,
1577.700,0.01818133,
1575.771,0.01808263,
1573.843,0.0172604,
1571.914,0.01532146,
1569.985,0.01261847,
1568.057,0.01011255,
1566.128,0.008126641,
1564.199,0.006487454,
1562.270,0.005101262,
1560.342,0.003959336,
1558.413,0.003180611,
1556.484,0.002759929,
1554.555,0.002470645,
1552.627,0.002208285,
1550.698,0.001970642,
1548.769,0.001747201,
1546.841,0.001554918,
1544.912,0.001391871,
1542.983,0.001234768,
1541.054,0.001088705,
1539.126,0.0009892059,
1537.197,0.0009297665,
1535.268,0.0008615305,
1533.339,0.0008003634,
1531.411,0.0007752491,
1529.482,0.0007529624,
1527.553,0.0007079245,
1525.625,0.0006538048,
1523.696,0.0006061716,
1521.767,0.0005779223,
1519.838,0.0005686619,
1517.910,0.0005489536,
1515.981,0.0005149481,
1514.052,0.0004882973,
1512.123,0.0004763777,
1510.195,0.0004604747,
1508.266,0.0004246426,
1506.337,0.0004006913,
1504.409,0.0004154668,
1502.480,0.0004357105,
1500.551,0.0004275333,
1498.622,0.0004019466,
1496.694,0.0003897615,
1494.765,0.0003864179,
1492.836,0.0003733495,
1490.907,0.0003713907,
1488.979,0.0003946195,
1487.050,0.0004077333,
1485.121,0.0003946093,
1483.193,0.0003880987,
1481.264,0.0003922493,
1479.335,0.0003906047,
1477.406,0.0003924256,
1475.478,0.0004047648,
1473.549,0.0004113727,
1471.620,0.0004052171,
1469.691,0.0003889541,
1467.763,0.0003703571,
1465.834,0.0003672641,
1463.905,0.0003897072,
1461.976,0.0004220398,
1460.048,0.0004245626,
1458.119,0.0003856606,
1456.190,0.0003387684,
1454.262,0.0002875747,
1452.333,0.0002240467,
1450.404,0.000174555,
1448.475,0.0001613911,
1446.547,0.0001789384,
1444.618,0.000218503,
1442.689,0.0002789012,
1440.760,0.0003283554,
1438.832,0.0003474065,
1436.903,0.0003474696,
1434.974,0.0003389227,
1433.046,0.0003134039,
1431.117,0.0002841566,
1429.188,0.0002807052,
1427.259,0.0002877861,
1425.331,0.0002843647,
1423.402,0.0002848499,
1421.473,0.0002870816,
1419.544,0.0002775142,
1417.616,0.0002829413,
1415.687,0.0003261321,
1413.758,0.0003696597,
1411.830,0.0003922152,
1409.901,0.0004276487,
1407.972,0.0004837152,
1406.043,0.0005371204,
1404.115,0.0005875736,
1402.186,0.0006435192,
1400.257,0.0007040833,
1398.328,0.0007653991,
1396.400,0.0008265731,
1394.471,0.0009113804,
1392.542,0.00105343,
1390.614,0.00124127,
1388.685,0.001442049,
1386.756,0.001670901,
1384.827,0.001975201,
1382.899,0.002377256,
1380.970,0.002891044,
1379.041,0.003546557,
1377.112,0.004359304,
1375.184,0.00532966,
1373.255,0.006401506,
1371.326,0.007334138,
1369.398,0.00777398,
1367.469,0.00751096,
1365.540,0.006606827,
1363.611,0.005342756,
1361.683,0.004065522,
1359.754,0.002998698,
1357.825,0.002182011,
1355.896,0.001565572,
1353.968,0.001096989,
1352.039,0.0007552198,
1350.110,0.0005455526,
1348.181,0.0004644947,
1346.253,0.0004780368,
1344.324,0.0005239932,
1342.395,0.0005226756,
1340.467,0.0004676731,
1338.538,0.0004698379,
1336.609,0.0006147886,
1334.680,0.0008372604,
1332.752,0.000973838,
1330.823,0.0009380191,
1328.894,0.0007948053,
1326.965,0.0006362888,
1325.037,0.0005052782,
1323.108,0.000416824,
1321.179,0.0003642726,
1319.251,0.000319706,
1317.322,0.0002536638,
1315.393,0.0001728885,
1313.464,0.0001168917,
1311.536,0.0001173295,
1309.607,0.0002004338,
1307.678,0.0003646695,
1305.749,0.0005738873,
1303.821,0.0007403705,
1301.892,0.0007996198,
1299.963,0.0007711793,
1298.035,0.0007095856,
1296.106,0.0006362175,
1294.177,0.0005498545,
1292.248,0.0004764985,
1290.320,0.0004419503,
1288.391,0.0004230129,
1286.462,0.0003910126,
1284.533,0.0003677294,
1282.605,0.0003658742,
1280.676,0.0003495112,
1278.747,0.0003115256,
1276.819,0.000278665,
1274.890,0.0002547801,
1272.961,0.0002314274,
1271.032,0.0002107551,
1269.104,0.0001954581,
1267.175,0.0001846776,
1265.246,0.0001733372,
1263.317,0.0001649672,
1261.389,0.0001727801,
1259.460,0.0001889533,
1257.531,0.0002042721,
1255.603,0.0002213171,
1253.674,0.0002339803,
1251.745,0.0002155763,
1249.816,0.0001869761,
1247.888,0.0001826562,
1245.959,0.0001831928,
1244.030,0.0001701316,
1242.101,0.0001634378,
1240.173,0.0001698622,
1238.244,0.0001704215,
1236.315,0.0001643209,
1234.386,0.0001571569,
1232.458,0.0001370536,
1230.529,0.0001142282,
1228.600,0.0001211359,
1226.672,0.0001272329,
1224.743,9.916385E-5,
1222.814,5.597853E-5,
1220.885,5.327297E-5,
1218.957,6.931924E-5,
1217.028,7.26549E-5,
1215.099,9.600048E-5,
1213.170,0.0001348618,
1211.242,0.0001501237,
1209.313,0.0001422681,
1207.384,0.0001382117,
1205.456,0.0001335162,
1203.527,0.0001194595,
1201.598,0.0001208536,
1199.669,0.0001329588,
1197.741,0.0001536514,
1195.812,0.0001850788,
1193.883,0.0001941967,
1191.954,0.000196128,
1190.026,0.0002164788,
1188.097,0.0002374137,
1186.168,0.0002497179,
1184.240,0.0002709296,
1182.311,0.000316359,
1180.382,0.0003345766,
1178.453,0.0003108202,
1176.525,0.0003017837,
1174.596,0.0003325994,
1172.667,0.0003656138,
1170.738,0.0003687357,
1168.810,0.0003604464,
1166.881,0.0003877858,
1164.952,0.0004506648,
1163.024,0.0005379204,
1161.095,0.0006443535,
1159.166,0.0007477948,
1157.237,0.0008339459,
1155.309,0.0009500637,
1153.380,0.001142174,
1151.451,0.001412233,
1149.522,0.001742521,
1147.594,0.002090104,
1145.665,0.002374236,
1143.736,0.002506358,
1141.807,0.002433789,
1139.879,0.002154031,
1137.950,0.001722086,
1136.021,0.00126382,
1134.093,0.0008938551,
1132.164,0.0006295447,
1130.235,0.0004341972,
1128.306,0.0002858228,
1126.378,0.0001849002,
1124.449,0.0001225781,
1122.520,7.887618E-5,
1120.591,0.0001091454,
1118.663,0.000110763,
1116.734,0.0001316978,
1114.805,0.0002348262,
1112.877,0.0003612268,
1110.948,0.0005244121,
1109.019,0.0007156802,
1107.090,0.0008500034,
1105.162,0.0008686932,
1103.233,0.0007899333,
1101.304,0.0006628141,
1099.375,0.0005308854,
1097.447,0.0004051518,
1095.518,0.0002917044,
1093.589,0.0002182853,
1091.661,0.000194474,
1089.732,0.0001972538,
1087.803,0.0001934794,
1085.874,0.0001684053,
1083.946,0.0001356821,
1082.017,0.0001421826,
1080.088,0.000159258,
1078.159,0.0001409865,
1076.231,0.0001096052,
1074.302,0.0001371898,
1072.373,0.0001369314,
1070.445,0.0001310301,
1068.516,0.0001110351,
1066.587,8.207747E-5,
1064.658,3.892587E-5,
1062.730,2.632359E-5,
1060.801,1.930903E-5,
1058.872,5.167169E-5,
1056.943,6.34446E-5,
1055.015,4.460889E-5,
1053.086,5.314132E-5,
1051.157,0.0001155791,
1049.229,0.0001606859,
1047.300,0.0001338949,
1045.371,6.627499E-5,
1043.442,7.789983E-5,
1041.514,8.875581E-5,
1039.585,7.270275E-5,
1037.656,6.111541E-5,
1035.727,7.541779E-5,
1033.799,0.0001013148,
1031.870,0.0001104583,
1029.941,8.426658E-5,
1028.012,0.0001152736,
1026.084,0.0001295272,
1024.155,0.0001086398,
1022.226,8.768154E-5,
1020.298,9.642951E-5,
1018.369,9.276881E-5,
1016.440,8.681118E-5,
1014.511,8.583823E-5,
1012.583,7.181123E-5,
1010.654,4.560038E-5,
1008.725,9.506279E-5,
1006.796,0.0001040711,
1004.868,6.762563E-5,
1002.939,3.583191E-5,
1001.010,6.548441E-5,
999.082,6.968303E-5,
997.153,5.612486E-5,
995.224,3.128501E-5,
993.295,4.649011E-5,
991.367,7.000431E-5,
989.438,9.886768E-5,
987.509,6.570051E-5,
985.580,4.398161E-5,
983.652,5.521927E-5,
981.723,3.901597E-5,
979.794,2.80724E-5,
977.866,5.241587E-5,
975.937,5.517398E-5,
974.008,5.74094E-5,
972.079,5.856427E-5,
970.151,6.400792E-5,
968.222,6.991412E-5,
966.293,6.386403E-5,
964.364,4.868269E-5,
962.436,4.868337E-5,
960.507,4.416739E-5,
958.578,3.853655E-5,
956.650,4.251084E-5,
954.721,5.623131E-5,
952.792,0.0001009877,
950.863,0.0001250994,
948.935,9.497829E-5,
947.006,5.312882E-5,
945.077,4.858501E-5,
943.148,4.301796E-5,
941.220,5.710518E-5,
939.291,7.887386E-5,
937.362,7.023611E-5,
935.434,7.7613E-5,
933.505,7.909162E-5,
931.576,7.950702E-5,
929.647,6.790137E-5,
927.719,5.736271E-5,
925.790,5.946077E-5,
923.861,9.013919E-5,
921.932,9.560427E-5,
920.004,6.152001E-5,
918.075,4.796048E-5,
916.146,5.468756E-5,
914.217,4.845037E-5,
912.289,4.039274E-5,
910.360,4.09795E-5,
908.431,4.962474E-5,
906.503,6.444358E-5,
904.574,8.835349E-5,
902.645,0.0001278097,
900.716,0.0001128683,
898.788,8.139042E-5,
896.859,5.808098E-5,
894.930,7.331908E-5,
893.001,9.637357E-5,
891.073,8.879199E-5,
889.144,7.584E-5,
887.215,9.364346E-5,
885.287,8.891974E-5,
883.358,0.0001016339,
881.429,9.958984E-5,
879.500,8.197012E-5,
877.572,9.478587E-5,
875.643,7.638343E-5,
873.714,5.995089E-5,
871.785,5.42931E-5,
869.857,5.227431E-5,
867.928,7.273953E-5,
865.999,9.433166E-5,
864.071,0.0001336032,
862.142,0.0001440485,
860.213,0.0001210607,
858.284,8.162759E-5,
856.356,3.265858E-5,
854.427,2.523017E-5,
852.498,9.237858E-5,
850.569,0.0001448043,
848.641,0.0001209159,
846.712,8.752062E-5,
844.783,0.0001080306,
842.855,0.000132078,
840.926,0.000155565,
838.997,0.0001232951,
837.068,6.834885E-5,
835.140,8.021131E-5,
833.211,0.0001549779,
831.282,0.0001862,
829.353,0.0001254268,
827.425,8.776243E-5,
825.496,0.0001304246,
823.567,0.0001250817,
821.639,0.0001090655,
819.710,0.0001463757,
817.781,0.0001723964,
815.852,0.0001758853,
813.924,0.0001573798,
811.995,0.0001436433,
810.066,9.660584E-5,
808.137,0.0001069637,
806.209,0.0001512976,
804.280,0.0001663986,
802.351,0.000122739,
800.422,7.944043E-5,
798.494,7.61228E-5,
796.565,4.596497E-5,
794.636,0.0001050782,
792.708,0.0001808369,
790.779,0.0001784792,
788.850,0.0001139124,
786.921,0.0001372856,
784.993,0.0001728188,
783.064,0.0001835337,
781.135,0.0001616159,
779.206,0.0001277772,
777.278,9.413839E-5,
775.349,6.50892E-5,
773.420,7.796405E-5,
771.492,9.434603E-5,
769.563,0.0002034565,
767.634,0.0002443744,
765.705,0.0002034444,
763.777,0.0001437188,
761.848,0.000116487,
759.919,0.0001325489,
757.990,9.675389E-5,
756.062,0.0001016248,
754.133,0.0001565567,
752.204,0.0001743078,
750.276,0.0001459679,
748.347,0.0001117528,
746.418,0.0001034913,
744.489,0.0001223423,
742.561,0.0001040398,
740.632,0.0001089427,
738.703,0.0001060865,
736.774,0.0001553429,
734.846,0.0001325791,
732.917,8.077308E-5,
730.988,5.636008E-5,
729.060,0.0001120011,
727.131,7.189514E-5,
725.202,6.516708E-5,
723.273,0.0001171712,
721.345,9.183503E-5,
719.416,0.0001293675,
717.487,0.0001678384,
715.558,9.911462E-5,
713.630,6.152457E-5,
711.701,0.0001021324,
709.772,0.0002047398,
707.843,0.0002589287,
705.915,0.0002377655,
703.986,0.0001632053,
702.057,8.598439E-5,
700.129,0.0001598229,
698.200,0.0001954442,
696.271,0.000236662,
694.342,0.0001995649,
692.414,9.120039E-5,
690.485,4.253889E-5,
688.556,9.077496E-5,
686.627,8.589082E-5,
684.699,9.841278E-5,
682.770,0.0001233203,
680.841,0.0001185546,
678.913,0.0001252416,
676.984,0.0001748694,
675.055,0.0001685897,
673.126,0.0001211201,
671.198,9.590555E-5,
669.269,0.0001232811,
667.340,0.0001122108,
665.411,0.0002107973,
663.483,0.0001880629,
661.554,8.186269E-5,
659.625,0.0001085066,
657.697,4.945284E-5,
655.768,7.592872E-5,
653.839,0.0001048512,
651.910,8.684023E-5,
649.982,8.990654E-5,
648.053,4.653348E-5,
646.124,9.651316E-5,
644.195,9.448949E-5,
642.267,7.675805E-5,
640.338,6.672787E-5,
638.409,9.643906E-5,
636.481,9.189337E-5,
634.552,0.0002758039,
632.623,0.0003795067,
630.694,0.0003882358,
628.766,0.0004356078,
626.837,0.0004100805,
624.908,0.0003030971,
622.979,0.0002143644,
621.051,0.000261485,
619.122,0.0001786006,
617.193,0.0001487095,
615.265,0.0002091423,
613.336,0.0002366178,
611.407,0.000185706,
609.478,8.327071E-5,
607.550,0.000105453,
605.621,0.0001350975,
603.692,0.0001906018,
601.763,0.0002971654,
599.835,0.0003050776,
597.906,0.0002433455,
595.977,0.0001646761,
594.048,0.0002758264,
592.120,0.0003453979,
590.191,0.0002785644,
588.262,0.0003286077,
586.334,0.0004510536,
584.405,0.0004549522,
582.476,0.0003768188,
580.547,0.0003803352,
578.619,0.0004251835,
576.690,0.0003658019,
574.761,0.0002188142,
572.832,0.0001537578,
570.904,0.0001603793,
568.975,0.0002935888,
567.046,0.0004584967,
565.118,0.000499399,
563.189,0.0005236918,
561.260,0.0003982426,
559.331,0.0001473268,
557.403,9.548758E-5,
555.474,0.000178583,
553.545,0.0002880219,
551.616,0.0004967873,
549.688,0.0005271558,
547.759,0.0004263449,
545.830,0.0002373673,
543.902,0.0002041915,
541.973,0.0002726723,
540.044,0.000431749,
538.115,0.0004481507,
536.187,0.000378519,
534.258,0.0002520879,
532.329,0.000276686,
530.400,0.0002196591,
528.472,3.477109E-5,
526.543,0.0002253753,
524.614,0.0003503315,
522.686,0.0002279846,
520.757,0.0001887785,
518.828,0.0002693768,
516.899,0.000156819,
514.971,0.0003875023,
513.042,0.0005826114,
511.113,0.0004928891,
509.184,0.0004485088,
507.256,0.0004302984,
505.327,0.0003010544,
503.398,0.0003323343,
501.470,0.00049083,
499.541,0.0004225211,
497.612,0.0003182024,
495.683,0.0003229739,
493.755,0.0003304445,
491.826,0.0003320448,
489.897,0.0003832655,
487.968,0.0002891841,
486.040,0.0002329111,
484.111,0.0003779598,
482.182,0.0004301326,
480.253,0.0004594353,
478.325,0.0004288129,
476.396,0.0003745091,
474.467,0.0007724934,
472.539,0.0008237898,
470.610,0.0009206303,
468.681,0.0007880447,
466.752,0.0006726098,
464.824,0.0007571177,
462.895,0.0004768265,
460.966,0.0002650454,
459.037,0.0003047205,
457.109,0.0007310045,
455.180,0.0007388281,
453.251,0.0007543009,
451.323,0.001034677,
449.394,0.001079332,
447.465,0.0009499465,
445.536,0.0008157715,
443.608,0.0005117179,
441.679,0.0007350343,
439.750,0.0006828114,
437.821,0.0005685978,
435.893,0.000660007,
433.964,0.0006017592,
432.035,0.0005124417,
430.107,0.0008691598,
428.178,0.001108294,
426.249,0.001312451,
424.320,0.001367011,
422.392,0.001090637,
420.463,0.001088689,
418.534,0.0009806891,
416.605,0.001396135,
414.677,0.001757675,
412.748,0.001755063,
410.819,0.001711012,
408.891,0.001098113,
406.962,0.001548122,
405.033,0.002073084,
403.104,0.002229298,
401.176,0.003348706,
399.247,0.005219896,
397.318,0.004229058,
395.389,0.003197091,
393.461,0.003252359,
391.532,0.003417739,
389.603,0.004315761,
387.675,0.004799207,
385.746,0.005218964,
383.817,0.005815059,
381.888,0.004487126,
379.960,0.002116752,
378.031,0.002634821,
376.102,0.002048371,
374.173,0.004904305,
