Created as New Dataset,Sample 017 By Administrator Date Tuesday, November 30 2021
cm-1,%T
7000.00,11.64
6999.00,11.70
6998.00,11.77
6997.00,11.85
6996.00,11.92
6995.00,11.99
6994.00,12.07
6993.00,12.13
6992.00,12.20
6991.00,12.27
6990.00,12.33
6989.00,12.40
6988.00,12.47
6987.00,12.54
6986.00,12.61
6985.00,12.69
6984.00,12.76
6983.00,12.83
6982.00,12.90
6981.00,12.97
6980.00,13.04
6979.00,13.11
6978.00,13.18
6977.00,13.25
6976.00,13.31
6975.00,13.39
6974.00,13.47
6973.00,13.55
6972.00,13.64
6971.00,13.72
6970.00,13.80
6969.00,13.88
6968.00,13.96
6967.00,14.03
6966.00,14.09
6965.00,14.16
6964.00,14.24
6963.00,14.32
6962.00,14.39
6961.00,14.46
6960.00,14.52
6959.00,14.59
6958.00,14.65
6957.00,14.72
6956.00,14.78
6955.00,14.84
6954.00,14.91
6953.00,14.98
6952.00,15.05
6951.00,15.12
6950.00,15.17
6949.00,15.22
6948.00,15.26
6947.00,15.30
6946.00,15.35
6945.00,15.40
6944.00,15.45
6943.00,15.50
6942.00,15.54
6941.00,15.57
6940.00,15.59
6939.00,15.61
6938.00,15.62
6937.00,15.64
6936.00,15.65
6935.00,15.67
6934.00,15.69
6933.00,15.71
6932.00,15.72
6931.00,15.72
6930.00,15.71
6929.00,15.69
6928.00,15.67
6927.00,15.64
6926.00,15.60
6925.00,15.57
6924.00,15.52
6923.00,15.48
6922.00,15.42
6921.00,15.36
6920.00,15.28
6919.00,15.21
6918.00,15.13
6917.00,15.04
6916.00,14.96
6915.00,14.87
6914.00,14.79
6913.00,14.69
6912.00,14.60
6911.00,14.49
6910.00,14.38
6909.00,14.25
6908.00,14.12
6907.00,13.99
6906.00,13.86
6905.00,13.72
6904.00,13.57
6903.00,13.43
6902.00,13.28
6901.00,13.14
6900.00,12.99
6899.00,12.84
6898.00,12.69
6897.00,12.55
6896.00,12.40
6895.00,12.26
6894.00,12.12
6893.00,11.98
6892.00,11.84
6891.00,11.71
6890.00,11.57
6889.00,11.43
6888.00,11.29
6887.00,11.16
6886.00,11.02
6885.00,10.89
6884.00,10.75
6883.00,10.62
6882.00,10.49
6881.00,10.36
6880.00,10.24
6879.00,10.12
6878.00,10.01
6877.00,9.89
6876.00,9.78
6875.00,9.68
6874.00,9.57
6873.00,9.46
6872.00,9.35
6871.00,9.25
6870.00,9.16
6869.00,9.07
6868.00,8.99
6867.00,8.91
6866.00,8.83
6865.00,8.76
6864.00,8.69
6863.00,8.62
6862.00,8.55
6861.00,8.48
6860.00,8.42
6859.00,8.36
6858.00,8.30
6857.00,8.25
6856.00,8.19
6855.00,8.14
6854.00,8.09
6853.00,8.05
6852.00,8.01
6851.00,7.97
6850.00,7.94
6849.00,7.91
6848.00,7.88
6847.00,7.86
6846.00,7.83
6845.00,7.81
6844.00,7.78
6843.00,7.76
6842.00,7.74
6841.00,7.72
6840.00,7.70
6839.00,7.69
6838.00,7.68
6837.00,7.68
6836.00,7.68
6835.00,7.67
6834.00,7.66
6833.00,7.66
6832.00,7.66
6831.00,7.66
6830.00,7.65
6829.00,7.65
6828.00,7.65
6827.00,7.66
6826.00,7.67
6825.00,7.68
6824.00,7.69
6823.00,7.70
6822.00,7.72
6821.00,7.74
6820.00,7.76
6819.00,7.78
6818.00,7.80
6817.00,7.82
6816.00,7.83
6815.00,7.85
6814.00,7.88
6813.00,7.90
6812.00,7.93
6811.00,7.95
6810.00,7.98
6809.00,8.02
6808.00,8.05
6807.00,8.07
6806.00,8.10
6805.00,8.12
6804.00,8.15
6803.00,8.18
6802.00,8.21
6801.00,8.25
6800.00,8.29
6799.00,8.33
6798.00,8.37
6797.00,8.42
6796.00,8.46
6795.00,8.51
6794.00,8.56
6793.00,8.60
6792.00,8.64
6791.00,8.67
6790.00,8.71
6789.00,8.75
6788.00,8.80
6787.00,8.85
6786.00,8.90
6785.00,8.95
6784.00,8.99
6783.00,9.04
6782.00,9.08
6781.00,9.13
6780.00,9.17
6779.00,9.22
6778.00,9.27
6777.00,9.33
6776.00,9.40
6775.00,9.46
6774.00,9.52
6773.00,9.57
6772.00,9.63
6771.00,9.68
6770.00,9.74
6769.00,9.79
6768.00,9.84
6767.00,9.90
6766.00,9.96
6765.00,10.02
6764.00,10.09
6763.00,10.16
6762.00,10.22
6761.00,10.29
6760.00,10.35
6759.00,10.41
6758.00,10.47
6757.00,10.54
6756.00,10.60
6755.00,10.67
6754.00,10.74
6753.00,10.81
6752.00,10.88
6751.00,10.95
6750.00,11.02
6749.00,11.09
6748.00,11.16
6747.00,11.23
6746.00,11.30
6745.00,11.38
6744.00,11.45
6743.00,11.53
6742.00,11.60
6741.00,11.67
6740.00,11.75
6739.00,11.82
6738.00,11.90
6737.00,11.98
6736.00,12.05
6735.00,12.13
6734.00,12.20
6733.00,12.28
6732.00,12.37
6731.00,12.45
6730.00,12.53
6729.00,12.61
6728.00,12.69
6727.00,12.77
6726.00,12.84
6725.00,12.91
6724.00,12.98
6723.00,13.06
6722.00,13.13
6721.00,13.20
6720.00,13.27
6719.00,13.34
6718.00,13.40
6717.00,13.46
6716.00,13.52
6715.00,13.59
6714.00,13.65
6713.00,13.71
6712.00,13.76
6711.00,13.82
6710.00,13.88
6709.00,13.93
6708.00,13.97
6707.00,14.01
6706.00,14.05
6705.00,14.09
6704.00,14.12
6703.00,14.15
6702.00,14.17
6701.00,14.18
6700.00,14.20
6699.00,14.21
6698.00,14.20
6697.00,14.19
6696.00,14.18
6695.00,14.16
6694.00,14.13
6693.00,14.10
6692.00,14.07
6691.00,14.03
6690.00,14.00
6689.00,13.96
6688.00,13.91
6687.00,13.85
6686.00,13.78
6685.00,13.70
6684.00,13.61
6683.00,13.53
6682.00,13.44
6681.00,13.35
6680.00,13.26
6679.00,13.16
6678.00,13.05
6677.00,12.94
6676.00,12.82
6675.00,12.69
6674.00,12.56
6673.00,12.44
6672.00,12.31
6671.00,12.19
6670.00,12.07
6669.00,11.95
6668.00,11.83
6667.00,11.70
6666.00,11.57
6665.00,11.42
6664.00,11.29
6663.00,11.15
6662.00,11.02
6661.00,10.89
6660.00,10.76
6659.00,10.64
6658.00,10.52
6657.00,10.40
6656.00,10.27
6655.00,10.14
6654.00,10.01
6653.00,9.88
6652.00,9.76
6651.00,9.65
6650.00,9.54
6649.00,9.43
6648.00,9.33
6647.00,9.23
6646.00,9.12
6645.00,9.02
6644.00,8.92
6643.00,8.83
6642.00,8.74
6641.00,8.66
6640.00,8.59
6639.00,8.52
6638.00,8.44
6637.00,8.36
6636.00,8.28
6635.00,8.22
6634.00,8.16
6633.00,8.10
6632.00,8.04
6631.00,7.99
6630.00,7.94
6629.00,7.89
6628.00,7.84
6627.00,7.79
6626.00,7.74
6625.00,7.71
6624.00,7.68
6623.00,7.65
6622.00,7.62
6621.00,7.59
6620.00,7.56
6619.00,7.53
6618.00,7.51
6617.00,7.48
6616.00,7.46
6615.00,7.45
6614.00,7.44
6613.00,7.43
6612.00,7.43
6611.00,7.43
6610.00,7.43
6609.00,7.42
6608.00,7.42
6607.00,7.43
6606.00,7.44
6605.00,7.44
6604.00,7.45
6603.00,7.47
6602.00,7.49
6601.00,7.50
6600.00,7.52
6599.00,7.54
6598.00,7.55
6597.00,7.56
6596.00,7.57
6595.00,7.59
6594.00,7.61
6593.00,7.64
6592.00,7.67
6591.00,7.70
6590.00,7.73
6589.00,7.76
6588.00,7.80
6587.00,7.83
6586.00,7.86
6585.00,7.90
6584.00,7.94
6583.00,7.98
6582.00,8.01
6581.00,8.04
6580.00,8.07
6579.00,8.11
6578.00,8.15
6577.00,8.20
6576.00,8.25
6575.00,8.29
6574.00,8.34
6573.00,8.39
6572.00,8.43
6571.00,8.48
6570.00,8.52
6569.00,8.57
6568.00,8.63
6567.00,8.68
6566.00,8.74
6565.00,8.80
6564.00,8.85
6563.00,8.91
6562.00,8.97
6561.00,9.02
6560.00,9.07
6559.00,9.12
6558.00,9.18
6557.00,9.24
6556.00,9.30
6555.00,9.36
6554.00,9.43
6553.00,9.49
6552.00,9.56
6551.00,9.62
6550.00,9.68
6549.00,9.74
6548.00,9.80
6547.00,9.86
6546.00,9.93
6545.00,9.99
6544.00,10.05
6543.00,10.12
6542.00,10.19
6541.00,10.26
6540.00,10.33
6539.00,10.39
6538.00,10.46
6537.00,10.53
6536.00,10.60
6535.00,10.67
6534.00,10.74
6533.00,10.81
6532.00,10.88
6531.00,10.96
6530.00,11.04
6529.00,11.11
6528.00,11.19
6527.00,11.27
6526.00,11.35
6525.00,11.43
6524.00,11.50
6523.00,11.58
6522.00,11.65
6521.00,11.72
6520.00,11.79
6519.00,11.86
6518.00,11.94
6517.00,12.02
6516.00,12.10
6515.00,12.18
6514.00,12.26
6513.00,12.34
6512.00,12.42
6511.00,12.50
6510.00,12.59
6509.00,12.67
6508.00,12.76
6507.00,12.84
6506.00,12.93
6505.00,13.01
6504.00,13.08
6503.00,13.16
6502.00,13.24
6501.00,13.33
6500.00,13.42
6499.00,13.51
6498.00,13.59
6497.00,13.67
6496.00,13.75
6495.00,13.82
6494.00,13.90
6493.00,13.97
6492.00,14.05
6491.00,14.12
6490.00,14.20
6489.00,14.27
6488.00,14.34
6487.00,14.40
6486.00,14.46
6485.00,14.53
6484.00,14.59
6483.00,14.66
6482.00,14.73
6481.00,14.79
6480.00,14.84
6479.00,14.89
6478.00,14.94
6477.00,14.98
6476.00,15.01
6475.00,15.03
6474.00,15.06
6473.00,15.08
6472.00,15.10
6471.00,15.11
6470.00,15.12
6469.00,15.13
6468.00,15.13
6467.00,15.13
6466.00,15.12
6465.00,15.11
6464.00,15.09
6463.00,15.06
6462.00,15.02
6461.00,14.97
6460.00,14.92
6459.00,14.85
6458.00,14.78
6457.00,14.71
6456.00,14.63
6455.00,14.55
6454.00,14.46
6453.00,14.37
6452.00,14.27
6451.00,14.17
6450.00,14.06
6449.00,13.95
6448.00,13.82
6447.00,13.70
6446.00,13.56
6445.00,13.42
6444.00,13.28
6443.00,13.14
6442.00,13.00
6441.00,12.85
6440.00,12.70
6439.00,12.56
6438.00,12.41
6437.00,12.26
6436.00,12.11
6435.00,11.95
6434.00,11.80
6433.00,11.64
6432.00,11.49
6431.00,11.34
6430.00,11.19
6429.00,11.04
6428.00,10.89
6427.00,10.75
6426.00,10.60
6425.00,10.46
6424.00,10.31
6423.00,10.17
6422.00,10.03
6421.00,9.89
6420.00,9.76
6419.00,9.63
6418.00,9.51
6417.00,9.38
6416.00,9.27
6415.00,9.15
6414.00,9.04
6413.00,8.92
6412.00,8.81
6411.00,8.71
6410.00,8.61
6409.00,8.51
6408.00,8.42
6407.00,8.33
6406.00,8.24
6405.00,8.16
6404.00,8.08
6403.00,8.00
6402.00,7.93
6401.00,7.86
6400.00,7.80
6399.00,7.74
6398.00,7.68
6397.00,7.62
6396.00,7.56
6395.00,7.51
6394.00,7.45
6393.00,7.40
6392.00,7.36
6391.00,7.32
6390.00,7.28
6389.00,7.24
6388.00,7.21
6387.00,7.18
6386.00,7.15
6385.00,7.13
6384.00,7.10
6383.00,7.08
6382.00,7.07
6381.00,7.05
6380.00,7.05
6379.00,7.04
6378.00,7.04
6377.00,7.03
6376.00,7.03
6375.00,7.03
6374.00,7.02
6373.00,7.01
6372.00,7.01
6371.00,7.01
6370.00,7.02
6369.00,7.03
6368.00,7.04
6367.00,7.05
6366.00,7.07
6365.00,7.09
6364.00,7.10
6363.00,7.12
6362.00,7.14
6361.00,7.15
6360.00,7.17
6359.00,7.19
6358.00,7.21
6357.00,7.23
6356.00,7.25
6355.00,7.28
6354.00,7.31
6353.00,7.35
6352.00,7.38
6351.00,7.42
6350.00,7.45
6349.00,7.49
6348.00,7.52
6347.00,7.56
6346.00,7.60
6345.00,7.64
6344.00,7.68
6343.00,7.73
6342.00,7.78
6341.00,7.82
6340.00,7.86
6339.00,7.90
6338.00,7.94
6337.00,7.99
6336.00,8.03
6335.00,8.07
6334.00,8.12
6333.00,8.17
6332.00,8.22
6331.00,8.27
6330.00,8.32
6329.00,8.37
6328.00,8.43
6327.00,8.48
6326.00,8.54
6325.00,8.59
6324.00,8.64
6323.00,8.69
6322.00,8.75
6321.00,8.81
6320.00,8.87
6319.00,8.93
6318.00,9.00
6317.00,9.06
6316.00,9.13
6315.00,9.19
6314.00,9.25
6313.00,9.30
6312.00,9.36
6311.00,9.43
6310.00,9.49
6309.00,9.56
6308.00,9.63
6307.00,9.70
6306.00,9.78
6305.00,9.85
6304.00,9.92
6303.00,10.00
6302.00,10.07
6301.00,10.14
6300.00,10.21
6299.00,10.29
6298.00,10.36
6297.00,10.44
6296.00,10.52
6295.00,10.60
6294.00,10.68
6293.00,10.77
6292.00,10.85
6291.00,10.94
6290.00,11.02
6289.00,11.10
6288.00,11.18
6287.00,11.26
6286.00,11.34
6285.00,11.43
6284.00,11.52
6283.00,11.61
6282.00,11.70
6281.00,11.79
6280.00,11.88
6279.00,11.97
6278.00,12.06
6277.00,12.15
6276.00,12.24
6275.00,12.34
6274.00,12.45
6273.00,12.54
6272.00,12.64
6271.00,12.74
6270.00,12.83
6269.00,12.92
6268.00,13.02
6267.00,13.12
6266.00,13.22
6265.00,13.32
6264.00,13.41
6263.00,13.51
6262.00,13.60
6261.00,13.69
6260.00,13.78
6259.00,13.87
6258.00,13.96
6257.00,14.05
6256.00,14.13
6255.00,14.22
6254.00,14.30
6253.00,14.38
6252.00,14.46
6251.00,14.53
6250.00,14.61
6249.00,14.68
6248.00,14.74
6247.00,14.80
6246.00,14.86
6245.00,14.92
6244.00,14.97
6243.00,15.02
6242.00,15.06
6241.00,15.09
6240.00,15.12
6239.00,15.15
6238.00,15.17
6237.00,15.18
6236.00,15.19
6235.00,15.19
6234.00,15.18
6233.00,15.17
6232.00,15.15
6231.00,15.12
6230.00,15.09
6229.00,15.05
6228.00,15.00
6227.00,14.94
6226.00,14.88
6225.00,14.81
6224.00,14.74
6223.00,14.65
6222.00,14.56
6221.00,14.47
6220.00,14.36
6219.00,14.25
6218.00,14.14
6217.00,14.01
6216.00,13.87
6215.00,13.74
6214.00,13.60
6213.00,13.46
6212.00,13.32
6211.00,13.18
6210.00,13.04
6209.00,12.90
6208.00,12.74
6207.00,12.59
6206.00,12.43
6205.00,12.27
6204.00,12.11
6203.00,11.95
6202.00,11.80
6201.00,11.65
6200.00,11.50
6199.00,11.35
6198.00,11.20
6197.00,11.05
6196.00,10.89
6195.00,10.74
6194.00,10.58
6193.00,10.44
6192.00,10.30
6191.00,10.16
6190.00,10.03
6189.00,9.91
6188.00,9.78
6187.00,9.65
6186.00,9.52
6185.00,9.40
6184.00,9.28
6183.00,9.17
6182.00,9.06
6181.00,8.95
6180.00,8.85
6179.00,8.75
6178.00,8.66
6177.00,8.58
6176.00,8.49
6175.00,8.40
6174.00,8.32
6173.00,8.23
6172.00,8.15
6171.00,8.08
6170.00,8.02
6169.00,7.96
6168.00,7.91
6167.00,7.86
6166.00,7.81
6165.00,7.76
6164.00,7.71
6163.00,7.67
6162.00,7.63
6161.00,7.59
6160.00,7.56
6159.00,7.53
6158.00,7.50
6157.00,7.48
6156.00,7.46
6155.00,7.44
6154.00,7.42
6153.00,7.41
6152.00,7.40
6151.00,7.39
6150.00,7.38
6149.00,7.38
6148.00,7.38
6147.00,7.38
6146.00,7.38
6145.00,7.38
6144.00,7.38
6143.00,7.39
6142.00,7.41
6141.00,7.43
6140.00,7.45
6139.00,7.48
6138.00,7.50
6137.00,7.52
6136.00,7.54
6135.00,7.56
6134.00,7.59
6133.00,7.62
6132.00,7.65
6131.00,7.68
6130.00,7.71
6129.00,7.74
6128.00,7.77
6127.00,7.81
6126.00,7.85
6125.00,7.89
6124.00,7.93
6123.00,7.97
6122.00,8.01
6121.00,8.06
6120.00,8.11
6119.00,8.15
6118.00,8.20
6117.00,8.25
6116.00,8.30
6115.00,8.35
6114.00,8.40
6113.00,8.45
6112.00,8.50
6111.00,8.55
6110.00,8.60
6109.00,8.65
6108.00,8.70
6107.00,8.76
6106.00,8.81
6105.00,8.87
6104.00,8.93
6103.00,9.00
6102.00,9.06
6101.00,9.12
6100.00,9.18
6099.00,9.24
6098.00,9.31
6097.00,9.37
6096.00,9.43
6095.00,9.49
6094.00,9.55
6093.00,9.61
6092.00,9.67
6091.00,9.74
6090.00,9.80
6089.00,9.87
6088.00,9.93
6087.00,10.00
6086.00,10.06
6085.00,10.12
6084.00,10.18
6083.00,10.25
6082.00,10.32
6081.00,10.38
6080.00,10.45
6079.00,10.51
6078.00,10.58
6077.00,10.65
6076.00,10.72
6075.00,10.79
6074.00,10.85
6073.00,10.92
6072.00,10.99
6071.00,11.06
6070.00,11.13
6069.00,11.21
6068.00,11.29
6067.00,11.36
6066.00,11.44
6065.00,11.51
6064.00,11.58
6063.00,11.66
6062.00,11.74
6061.00,11.81
6060.00,11.90
6059.00,11.98
6058.00,12.07
6057.00,12.16
6056.00,12.24
6055.00,12.32
6054.00,12.40
6053.00,12.48
6052.00,12.56
6051.00,12.64
6050.00,12.73
6049.00,12.83
6048.00,12.92
6047.00,13.01
6046.00,13.10
6045.00,13.19
6044.00,13.27
6043.00,13.36
6042.00,13.46
6041.00,13.55
6040.00,13.65
6039.00,13.75
6038.00,13.84
6037.00,13.94
6036.00,14.04
6035.00,14.14
6034.00,14.24
6033.00,14.34
6032.00,14.44
6031.00,14.54
6030.00,14.64
6029.00,14.73
6028.00,14.82
6027.00,14.91
6026.00,15.01
6025.00,15.10
6024.00,15.19
6023.00,15.28
6022.00,15.37
6021.00,15.45
6020.00,15.53
6019.00,15.61
6018.00,15.68
6017.00,15.76
6016.00,15.82
6015.00,15.89
6014.00,15.94
6013.00,15.99
6012.00,16.03
6011.00,16.07
6010.00,16.11
6009.00,16.14
6008.00,16.16
6007.00,16.19
6006.00,16.20
6005.00,16.20
6004.00,16.20
6003.00,16.19
6002.00,16.17
6001.00,16.14
6000.00,16.10
5999.00,16.06
5998.00,16.00
5997.00,15.94
5996.00,15.86
5995.00,15.78
5994.00,15.70
5993.00,15.60
5992.00,15.49
5991.00,15.38
5990.00,15.27
5989.00,15.14
5988.00,15.01
5987.00,14.88
5986.00,14.73
5985.00,14.58
5984.00,14.42
5983.00,14.26
5982.00,14.10
5981.00,13.93
5980.00,13.75
5979.00,13.58
5978.00,13.40
5977.00,13.22
5976.00,13.04
5975.00,12.86
5974.00,12.68
5973.00,12.49
5972.00,12.30
5971.00,12.12
5970.00,11.94
5969.00,11.75
5968.00,11.58
5967.00,11.40
5966.00,11.23
5965.00,11.05
5964.00,10.87
5963.00,10.70
5962.00,10.54
5961.00,10.37
5960.00,10.21
5959.00,10.05
5958.00,9.90
5957.00,9.75
5956.00,9.60
5955.00,9.47
5954.00,9.33
5953.00,9.20
5952.00,9.07
5951.00,8.94
5950.00,8.81
5949.00,8.68
5948.00,8.56
5947.00,8.45
5946.00,8.34
5945.00,8.24
5944.00,8.14
5943.00,8.04
5942.00,7.95
5941.00,7.86
5940.00,7.77
5939.00,7.69
5938.00,7.62
5937.00,7.54
5936.00,7.47
5935.00,7.40
5934.00,7.34
5933.00,7.27
5932.00,7.21
5931.00,7.15
5930.00,7.10
5929.00,7.05
5928.00,7.00
5927.00,6.96
5926.00,6.93
5925.00,6.90
5924.00,6.87
5923.00,6.84
5922.00,6.82
5921.00,6.79
5920.00,6.78
5919.00,6.76
5918.00,6.75
5917.00,6.73
5916.00,6.72
5915.00,6.71
5914.00,6.71
5913.00,6.71
5912.00,6.71
5911.00,6.71
5910.00,6.72
5909.00,6.73
5908.00,6.74
5907.00,6.75
5906.00,6.77
5905.00,6.79
5904.00,6.81
5903.00,6.84
5902.00,6.86
5901.00,6.88
5900.00,6.90
5899.00,6.92
5898.00,6.95
5897.00,6.98
5896.00,7.01
5895.00,7.05
5894.00,7.08
5893.00,7.12
5892.00,7.15
5891.00,7.18
5890.00,7.21
5889.00,7.25
5888.00,7.29
5887.00,7.33
5886.00,7.38
5885.00,7.42
5884.00,7.47
5883.00,7.52
5882.00,7.57
5881.00,7.62
5880.00,7.67
5879.00,7.71
5878.00,7.76
5877.00,7.81
5876.00,7.87
5875.00,7.93
5874.00,8.00
5873.00,8.06
5872.00,8.12
5871.00,8.18
5870.00,8.24
5869.00,8.30
5868.00,8.35
5867.00,8.40
5866.00,8.46
5865.00,8.52
5864.00,8.58
5863.00,8.65
5862.00,8.72
5861.00,8.79
5860.00,8.86
5859.00,8.93
5858.00,8.99
5857.00,9.06
5856.00,9.13
5855.00,9.20
5854.00,9.28
5853.00,9.35
5852.00,9.43
5851.00,9.50
5850.00,9.58
5849.00,9.66
5848.00,9.74
5847.00,9.82
5846.00,9.90
5845.00,9.98
5844.00,10.06
5843.00,10.14
5842.00,10.22
5841.00,10.31
5840.00,10.39
5839.00,10.48
5838.00,10.56
5837.00,10.65
5836.00,10.73
5835.00,10.82
5834.00,10.91
5833.00,11.01
5832.00,11.10
5831.00,11.20
5830.00,11.30
5829.00,11.39
5828.00,11.49
5827.00,11.58
5826.00,11.68
5825.00,11.78
5824.00,11.89
5823.00,11.99
5822.00,12.09
5821.00,12.19
5820.00,12.29
5819.00,12.40
5818.00,12.50
5817.00,12.61
5816.00,12.72
5815.00,12.83
5814.00,12.94
5813.00,13.05
5812.00,13.16
5811.00,13.27
5810.00,13.38
5809.00,13.49
5808.00,13.60
5807.00,13.71
5806.00,13.82
5805.00,13.93
5804.00,14.05
5803.00,14.16
5802.00,14.28
5801.00,14.39
5800.00,14.50
5799.00,14.62
5798.00,14.73
5797.00,14.84
5796.00,14.95
5795.00,15.07
5794.00,15.18
5793.00,15.30
5792.00,15.40
5791.00,15.51
5790.00,15.61
5789.00,15.70
5788.00,15.79
5787.00,15.87
5786.00,15.95
5785.00,16.03
5784.00,16.11
5783.00,16.18
5782.00,16.25
5781.00,16.31
5780.00,16.36
5779.00,16.41
5778.00,16.44
5777.00,16.47
5776.00,16.49
5775.00,16.51
5774.00,16.52
5773.00,16.51
5772.00,16.49
5771.00,16.46
5770.00,16.43
5769.00,16.38
5768.00,16.34
5767.00,16.29
5766.00,16.23
5765.00,16.15
5764.00,16.07
5763.00,15.98
5762.00,15.86
5761.00,15.74
5760.00,15.61
5759.00,15.48
5758.00,15.34
5757.00,15.19
5756.00,15.03
5755.00,14.87
5754.00,14.70
5753.00,14.53
5752.00,14.34
5751.00,14.16
5750.00,13.98
5749.00,13.79
5748.00,13.60
5747.00,13.40
5746.00,13.21
5745.00,13.01
5744.00,12.80
5743.00,12.61
5742.00,12.41
5741.00,12.21
5740.00,12.02
5739.00,11.83
5738.00,11.63
5737.00,11.44
5736.00,11.26
5735.00,11.07
5734.00,10.88
5733.00,10.70
5732.00,10.52
5731.00,10.34
5730.00,10.17
5729.00,10.00
5728.00,9.84
5727.00,9.68
5726.00,9.53
5725.00,9.38
5724.00,9.24
5723.00,9.10
5722.00,8.96
5721.00,8.82
5720.00,8.69
5719.00,8.56
5718.00,8.43
5717.00,8.32
5716.00,8.20
5715.00,8.09
5714.00,7.98
5713.00,7.88
5712.00,7.77
5711.00,7.68
5710.00,7.59
5709.00,7.50
5708.00,7.42
5707.00,7.34
5706.00,7.26
5705.00,7.19
5704.00,7.11
5703.00,7.05
5702.00,6.99
5701.00,6.93
5700.00,6.87
5699.00,6.82
5698.00,6.77
5697.00,6.73
5696.00,6.69
5695.00,6.65
5694.00,6.62
5693.00,6.59
5692.00,6.55
5691.00,6.52
5690.00,6.50
5689.00,6.47
5688.00,6.45
5687.00,6.44
5686.00,6.42
5685.00,6.41
5684.00,6.40
5683.00,6.39
5682.00,6.39
5681.00,6.39
5680.00,6.39
5679.00,6.38
5678.00,6.39
5677.00,6.40
5676.00,6.41
5675.00,6.42
5674.00,6.44
5673.00,6.46
5672.00,6.48
5671.00,6.50
5670.00,6.52
5669.00,6.54
5668.00,6.57
5667.00,6.60
5666.00,6.63
5665.00,6.66
5664.00,6.69
5663.00,6.73
5662.00,6.77
5661.00,6.81
5660.00,6.85
5659.00,6.90
5658.00,6.94
5657.00,6.98
5656.00,7.02
5655.00,7.06
5654.00,7.10
5653.00,7.15
5652.00,7.20
5651.00,7.26
5650.00,7.31
5649.00,7.37
5648.00,7.43
5647.00,7.48
5646.00,7.54
5645.00,7.60
5644.00,7.65
5643.00,7.71
5642.00,7.77
5641.00,7.83
5640.00,7.89
5639.00,7.96
5638.00,8.02
5637.00,8.09
5636.00,8.16
5635.00,8.23
5634.00,8.30
5633.00,8.37
5632.00,8.45
5631.00,8.52
5630.00,8.59
5629.00,8.66
5628.00,8.73
5627.00,8.80
5626.00,8.88
5625.00,8.95
5624.00,9.03
5623.00,9.11
5622.00,9.19
5621.00,9.27
5620.00,9.35
5619.00,9.44
5618.00,9.53
5617.00,9.61
5616.00,9.70
5615.00,9.78
5614.00,9.86
5613.00,9.95
5612.00,10.04
5611.00,10.13
5610.00,10.22
5609.00,10.32
5608.00,10.41
5607.00,10.51
5606.00,10.61
5605.00,10.71
5604.00,10.80
5603.00,10.89
5602.00,10.99
5601.00,11.09
5600.00,11.19
5599.00,11.29
5598.00,11.40
5597.00,11.51
5596.00,11.61
5595.00,11.71
5594.00,11.81
5593.00,11.92
5592.00,12.02
5591.00,12.14
5590.00,12.25
5589.00,12.37
5588.00,12.48
5587.00,12.60
5586.00,12.72
5585.00,12.83
5584.00,12.95
5583.00,13.06
5582.00,13.17
5581.00,13.29
5580.00,13.41
5579.00,13.53
5578.00,13.66
5577.00,13.78
5576.00,13.90
5575.00,14.03
5574.00,14.15
5573.00,14.27
5572.00,14.40
5571.00,14.52
5570.00,14.64
5569.00,14.76
5568.00,14.89
5567.00,15.01
5566.00,15.14
5565.00,15.26
5564.00,15.38
5563.00,15.50
5562.00,15.62
5561.00,15.73
5560.00,15.84
5559.00,15.95
5558.00,16.05
5557.00,16.15
5556.00,16.25
5555.00,16.35
5554.00,16.44
5553.00,16.53
5552.00,16.61
5551.00,16.69
5550.00,16.76
5549.00,16.83
5548.00,16.89
5547.00,16.94
5546.00,16.98
5545.00,17.02
5544.00,17.04
5543.00,17.06
5542.00,17.07
5541.00,17.07
5540.00,17.06
5539.00,17.04
5538.00,17.01
5537.00,16.96
5536.00,16.91
5535.00,16.84
5534.00,16.77
5533.00,16.68
5532.00,16.58
5531.00,16.47
5530.00,16.35
5529.00,16.22
5528.00,16.09
5527.00,15.94
5526.00,15.79
5525.00,15.63
5524.00,15.46
5523.00,15.28
5522.00,15.10
5521.00,14.91
5520.00,14.72
5519.00,14.52
5518.00,14.32
5517.00,14.11
5516.00,13.89
5515.00,13.68
5514.00,13.46
5513.00,13.25
5512.00,13.04
5511.00,12.82
5510.00,12.61
5509.00,12.40
5508.00,12.19
5507.00,11.99
5506.00,11.78
5505.00,11.58
5504.00,11.38
5503.00,11.18
5502.00,10.98
5501.00,10.78
5500.00,10.59
5499.00,10.40
5498.00,10.22
5497.00,10.04
5496.00,9.87
5495.00,9.71
5494.00,9.54
5493.00,9.38
5492.00,9.22
5491.00,9.07
5490.00,8.92
5489.00,8.77
5488.00,8.62
5487.00,8.48
5486.00,8.34
5485.00,8.21
5484.00,8.08
5483.00,7.97
5482.00,7.85
5481.00,7.75
5480.00,7.64
5479.00,7.54
5478.00,7.44
5477.00,7.35
5476.00,7.25
5475.00,7.16
5474.00,7.08
5473.00,6.99
5472.00,6.91
5471.00,6.84
5470.00,6.76
5469.00,6.69
5468.00,6.63
5467.00,6.57
5466.00,6.51
5465.00,6.46
5464.00,6.41
5463.00,6.36
5462.00,6.31
5461.00,6.27
5460.00,6.23
5459.00,6.20
5458.00,6.17
5457.00,6.14
5456.00,6.11
5455.00,6.09
5454.00,6.06
5453.00,6.04
5452.00,6.02
5451.00,6.01
5450.00,5.99
5449.00,5.99
5448.00,5.98
5447.00,5.99
5446.00,5.99
5445.00,5.99
5444.00,6.00
5443.00,6.01
5442.00,6.02
5441.00,6.03
5440.00,6.05
5439.00,6.06
5438.00,6.08
5437.00,6.10
5436.00,6.12
5435.00,6.15
5434.00,6.18
5433.00,6.21
5432.00,6.24
5431.00,6.28
5430.00,6.31
5429.00,6.35
5428.00,6.38
5427.00,6.42
5426.00,6.46
5425.00,6.51
5424.00,6.56
5423.00,6.61
5422.00,6.66
5421.00,6.71
5420.00,6.75
5419.00,6.80
5418.00,6.85
5417.00,6.91
5416.00,6.97
5415.00,7.02
5414.00,7.08
5413.00,7.14
5412.00,7.20
5411.00,7.27
5410.00,7.33
5409.00,7.39
5408.00,7.46
5407.00,7.52
5406.00,7.59
5405.00,7.65
5404.00,7.72
5403.00,7.79
5402.00,7.86
5401.00,7.93
5400.00,8.00
5399.00,8.07
5398.00,8.14
5397.00,8.22
5396.00,8.30
5395.00,8.39
5394.00,8.47
5393.00,8.55
5392.00,8.63
5391.00,8.71
5390.00,8.79
5389.00,8.87
5388.00,8.95
5387.00,9.03
5386.00,9.12
5385.00,9.20
5384.00,9.28
5383.00,9.37
5382.00,9.46
5381.00,9.55
5380.00,9.64
5379.00,9.73
5378.00,9.82
5377.00,9.91
5376.00,10.01
5375.00,10.11
5374.00,10.20
5373.00,10.30
5372.00,10.40
5371.00,10.50
5370.00,10.60
5369.00,10.70
5368.00,10.80
5367.00,10.90
5366.00,11.00
5365.00,11.11
5364.00,11.21
5363.00,11.32
5362.00,11.43
5361.00,11.54
5360.00,11.65
5359.00,11.76
5358.00,11.87
5357.00,11.99
5356.00,12.10
5355.00,12.21
5354.00,12.33
5353.00,12.44
5352.00,12.56
5351.00,12.69
5350.00,12.82
5349.00,12.95
5348.00,13.07
5347.00,13.19
5346.00,13.31
5345.00,13.43
5344.00,13.55
5343.00,13.68
5342.00,13.81
5341.00,13.93
5340.00,14.05
5339.00,14.17
5338.00,14.30
5337.00,14.43
5336.00,14.56
5335.00,14.68
5334.00,14.80
5333.00,14.91
5332.00,15.02
5331.00,15.13
5330.00,15.24
5329.00,15.35
5328.00,15.47
5327.00,15.58
5326.00,15.69
5325.00,15.80
5324.00,15.90
5323.00,16.00
5322.00,16.08
5321.00,16.16
5320.00,16.23
5319.00,16.30
5318.00,16.36
5317.00,16.42
5316.00,16.47
5315.00,16.51
5314.00,16.55
5313.00,16.57
5312.00,16.58
5311.00,16.57
5310.00,16.56
5309.00,16.54
5308.00,16.51
5307.00,16.48
5306.00,16.43
5305.00,16.37
5304.00,16.29
5303.00,16.20
5302.00,16.09
5301.00,15.98
5300.00,15.85
5299.00,15.72
5298.00,15.58
5297.00,15.42
5296.00,15.24
5295.00,15.06
5294.00,14.88
5293.00,14.68
5292.00,14.48
5291.00,14.27
5290.00,14.06
5289.00,13.85
5288.00,13.63
5287.00,13.40
5286.00,13.17
5285.00,12.94
5284.00,12.71
5283.00,12.48
5282.00,12.25
5281.00,12.02
5280.00,11.79
5279.00,11.57
5278.00,11.34
5277.00,11.11
5276.00,10.89
5275.00,10.66
5274.00,10.44
5273.00,10.23
5272.00,10.02
5271.00,9.82
5270.00,9.61
5269.00,9.42
5268.00,9.23
5267.00,9.05
5266.00,8.88
5265.00,8.71
5264.00,8.54
5263.00,8.38
5262.00,8.21
5261.00,8.06
5260.00,7.91
5259.00,7.76
5258.00,7.62
5257.00,7.49
5256.00,7.36
5255.00,7.24
5254.00,7.12
5253.00,7.00
5252.00,6.89
5251.00,6.78
5250.00,6.68
5249.00,6.58
5248.00,6.48
5247.00,6.39
5246.00,6.30
5245.00,6.22
5244.00,6.14
5243.00,6.06
5242.00,5.99
5241.00,5.92
5240.00,5.86
5239.00,5.80
5238.00,5.74
5237.00,5.68
5236.00,5.63
5235.00,5.58
5234.00,5.54
5233.00,5.49
5232.00,5.45
5231.00,5.42
5230.00,5.38
5229.00,5.35
5228.00,5.32
5227.00,5.30
5226.00,5.27
5225.00,5.25
5224.00,5.23
5223.00,5.22
5222.00,5.20
5221.00,5.19
5220.00,5.19
5219.00,5.18
5218.00,5.18
5217.00,5.18
5216.00,5.18
5215.00,5.18
5214.00,5.19
5213.00,5.20
5212.00,5.21
5211.00,5.23
5210.00,5.25
5209.00,5.28
5208.00,5.30
5207.00,5.32
5206.00,5.34
5205.00,5.36
5204.00,5.38
5203.00,5.41
5202.00,5.44
5201.00,5.48
5200.00,5.52
5199.00,5.56
5198.00,5.60
5197.00,5.64
5196.00,5.68
5195.00,5.72
5194.00,5.77
5193.00,5.82
5192.00,5.87
5191.00,5.92
5190.00,5.98
5189.00,6.03
5188.00,6.09
5187.00,6.15
5186.00,6.21
5185.00,6.27
5184.00,6.33
5183.00,6.39
5182.00,6.45
5181.00,6.52
5180.00,6.59
5179.00,6.65
5178.00,6.72
5177.00,6.79
5176.00,6.86
5175.00,6.93
5174.00,7.00
5173.00,7.08
5172.00,7.15
5171.00,7.23
5170.00,7.31
5169.00,7.39
5168.00,7.47
5167.00,7.55
5166.00,7.63
5165.00,7.71
5164.00,7.79
5163.00,7.87
5162.00,7.96
5161.00,8.04
5160.00,8.13
5159.00,8.22
5158.00,8.30
5157.00,8.39
5156.00,8.48
5155.00,8.58
5154.00,8.67
5153.00,8.76
5152.00,8.85
5151.00,8.95
5150.00,9.04
5149.00,9.13
5148.00,9.23
5147.00,9.32
5146.00,9.42
5145.00,9.52
5144.00,9.62
5143.00,9.73
5142.00,9.83
5141.00,9.94
5140.00,10.04
5139.00,10.15
5138.00,10.26
5137.00,10.36
5136.00,10.47
5135.00,10.57
5134.00,10.68
5133.00,10.79
5132.00,10.91
5131.00,11.02
5130.00,11.13
5129.00,11.24
5128.00,11.36
5127.00,11.48
5126.00,11.60
5125.00,11.72
5124.00,11.84
5123.00,11.96
5122.00,12.08
5121.00,12.21
5120.00,12.33
5119.00,12.46
5118.00,12.59
5117.00,12.72
5116.00,12.84
5115.00,12.97
5114.00,13.10
5113.00,13.23
5112.00,13.36
5111.00,13.49
5110.00,13.63
5109.00,13.76
5108.00,13.89
5107.00,14.03
5106.00,14.16
5105.00,14.29
5104.00,14.42
5103.00,14.55
5102.00,14.68
5101.00,14.81
5100.00,14.94
5099.00,15.07
5098.00,15.20
5097.00,15.32
5096.00,15.44
5095.00,15.56
5094.00,15.67
5093.00,15.77
5092.00,15.88
5091.00,15.98
5090.00,16.08
5089.00,16.16
5088.00,16.25
5087.00,16.32
5086.00,16.39
5085.00,16.44
5084.00,16.49
5083.00,16.53
5082.00,16.56
5081.00,16.58
5080.00,16.58
5079.00,16.58
5078.00,16.56
5077.00,16.53
5076.00,16.49
5075.00,16.44
5074.00,16.37
5073.00,16.28
5072.00,16.19
5071.00,16.08
5070.00,15.95
5069.00,15.82
5068.00,15.67
5067.00,15.51
5066.00,15.34
5065.00,15.16
5064.00,14.97
5063.00,14.77
5062.00,14.55
5061.00,14.33
5060.00,14.10
5059.00,13.87
5058.00,13.63
5057.00,13.39
5056.00,13.15
5055.00,12.90
5054.00,12.65
5053.00,12.40
5052.00,12.15
5051.00,11.90
5050.00,11.65
5049.00,11.41
5048.00,11.16
5047.00,10.92
5046.00,10.68
5045.00,10.45
5044.00,10.21
5043.00,9.99
5042.00,9.76
5041.00,9.54
5040.00,9.33
5039.00,9.12
5038.00,8.92
5037.00,8.72
5036.00,8.53
5035.00,8.34
5034.00,8.16
5033.00,7.99
5032.00,7.81
5031.00,7.65
5030.00,7.49
5029.00,7.34
5028.00,7.19
5027.00,7.05
5026.00,6.91
5025.00,6.78
5024.00,6.65
5023.00,6.53
5022.00,6.41
5021.00,6.30
5020.00,6.19
5019.00,6.09
5018.00,5.99
5017.00,5.90
5016.00,5.80
5015.00,5.72
5014.00,5.64
5013.00,5.56
5012.00,5.48
5011.00,5.41
5010.00,5.34
5009.00,5.27
5008.00,5.21
5007.00,5.15
5006.00,5.09
5005.00,5.04
5004.00,4.99
5003.00,4.94
5002.00,4.90
5001.00,4.86
5000.00,4.82
4999.00,4.79
4998.00,4.75
4997.00,4.72
4996.00,4.70
4995.00,4.67
4994.00,4.65
4993.00,4.63
4992.00,4.61
4991.00,4.59
4990.00,4.58
4989.00,4.57
4988.00,4.56
4987.00,4.55
4986.00,4.55
4985.00,4.54
4984.00,4.54
4983.00,4.55
4982.00,4.55
4981.00,4.56
4980.00,4.57
4979.00,4.59
4978.00,4.60
4977.00,4.62
4976.00,4.63
4975.00,4.65
4974.00,4.67
4973.00,4.70
4972.00,4.72
4971.00,4.75
4970.00,4.79
4969.00,4.82
4968.00,4.85
4967.00,4.89
4966.00,4.92
4965.00,4.96
4964.00,5.00
4963.00,5.05
4962.00,5.10
4961.00,5.15
4960.00,5.20
4959.00,5.25
4958.00,5.30
4957.00,5.35
4956.00,5.41
4955.00,5.47
4954.00,5.53
4953.00,5.59
4952.00,5.65
4951.00,5.71
4950.00,5.78
4949.00,5.84
4948.00,5.91
4947.00,5.98
4946.00,6.05
4945.00,6.12
4944.00,6.19
4943.00,6.27
4942.00,6.34
4941.00,6.42
4940.00,6.49
4939.00,6.57
4938.00,6.64
4937.00,6.72
4936.00,6.80
4935.00,6.87
4934.00,6.96
4933.00,7.04
4932.00,7.13
4931.00,7.22
4930.00,7.30
4929.00,7.38
4928.00,7.47
4927.00,7.55
4926.00,7.64
4925.00,7.72
4924.00,7.81
4923.00,7.91
4922.00,8.00
4921.00,8.09
4920.00,8.18
4919.00,8.28
4918.00,8.37
4917.00,8.46
4916.00,8.56
4915.00,8.66
4914.00,8.76
4913.00,8.85
4912.00,8.95
4911.00,9.05
4910.00,9.15
4909.00,9.26
4908.00,9.36
4907.00,9.46
4906.00,9.56
4905.00,9.67
4904.00,9.78
4903.00,9.89
4902.00,10.00
4901.00,10.11
4900.00,10.22
4899.00,10.34
4898.00,10.45
4897.00,10.57
4896.00,10.68
4895.00,10.80
4894.00,10.92
4893.00,11.04
4892.00,11.16
4891.00,11.28
4890.00,11.40
4889.00,11.53
4888.00,11.65
4887.00,11.78
4886.00,11.91
4885.00,12.04
4884.00,12.18
4883.00,12.31
4882.00,12.44
4881.00,12.58
4880.00,12.71
4879.00,12.85
4878.00,12.98
4877.00,13.12
4876.00,13.26
4875.00,13.40
4874.00,13.54
4873.00,13.68
4872.00,13.83
4871.00,13.97
4870.00,14.11
4869.00,14.25
4868.00,14.39
4867.00,14.52
4866.00,14.65
4865.00,14.78
4864.00,14.91
4863.00,15.03
4862.00,15.15
4861.00,15.27
4860.00,15.38
4859.00,15.48
4858.00,15.58
4857.00,15.67
4856.00,15.76
4855.00,15.83
4854.00,15.90
4853.00,15.95
4852.00,16.00
4851.00,16.03
4850.00,16.05
4849.00,16.05
4848.00,16.04
4847.00,16.02
4846.00,15.98
4845.00,15.92
4844.00,15.85
4843.00,15.77
4842.00,15.67
4841.00,15.55
4840.00,15.42
4839.00,15.28
4838.00,15.12
4837.00,14.95
4836.00,14.76
4835.00,14.57
4834.00,14.36
4833.00,14.14
4832.00,13.91
4831.00,13.68
4830.00,13.43
4829.00,13.18
4828.00,12.93
4827.00,12.67
4826.00,12.41
4825.00,12.15
4824.00,11.88
4823.00,11.62
4822.00,11.36
4821.00,11.09
4820.00,10.83
4819.00,10.58
4818.00,10.32
4817.00,10.07
4816.00,9.83
4815.00,9.59
4814.00,9.35
4813.00,9.12
4812.00,8.90
4811.00,8.68
4810.00,8.47
4809.00,8.26
4808.00,8.06
4807.00,7.87
4806.00,7.67
4805.00,7.49
4804.00,7.31
4803.00,7.14
4802.00,6.98
4801.00,6.83
4800.00,6.67
4799.00,6.53
4798.00,6.39
4797.00,6.25
4796.00,6.12
4795.00,5.99
4794.00,5.87
4793.00,5.75
4792.00,5.64
4791.00,5.54
4790.00,5.44
4789.00,5.35
4788.00,5.26
4787.00,5.17
4786.00,5.08
4785.00,5.00
4784.00,4.92
4783.00,4.85
4782.00,4.78
4781.00,4.71
4780.00,4.65
4779.00,4.59
4778.00,4.53
4777.00,4.48
4776.00,4.42
4775.00,4.37
4774.00,4.33
4773.00,4.29
4772.00,4.25
4771.00,4.21
4770.00,4.18
4769.00,4.15
4768.00,4.11
4767.00,4.09
4766.00,4.06
4765.00,4.04
4764.00,4.01
4763.00,3.99
4762.00,3.97
4761.00,3.96
4760.00,3.94
4759.00,3.93
4758.00,3.92
4757.00,3.92
4756.00,3.91
4755.00,3.91
4754.00,3.91
4753.00,3.90
4752.00,3.90
4751.00,3.91
4750.00,3.91
4749.00,3.92
4748.00,3.93
4747.00,3.95
4746.00,3.96
4745.00,3.98
4744.00,4.00
4743.00,4.02
4742.00,4.04
4741.00,4.06
4740.00,4.09
4739.00,4.12
4738.00,4.15
4737.00,4.18
4736.00,4.22
4735.00,4.25
4734.00,4.29
4733.00,4.32
4732.00,4.37
4731.00,4.41
4730.00,4.46
4729.00,4.51
4728.00,4.57
4727.00,4.62
4726.00,4.67
4725.00,4.72
4724.00,4.78
4723.00,4.84
4722.00,4.90
4721.00,4.96
4720.00,5.03
4719.00,5.09
4718.00,5.16
4717.00,5.23
4716.00,5.30
4715.00,5.37
4714.00,5.44
4713.00,5.52
4712.00,5.59
4711.00,5.67
4710.00,5.75
4709.00,5.83
4708.00,5.91
4707.00,5.99
4706.00,6.06
4705.00,6.14
4704.00,6.23
4703.00,6.31
4702.00,6.40
4701.00,6.48
4700.00,6.57
4699.00,6.65
4698.00,6.74
4697.00,6.83
4696.00,6.92
4695.00,7.00
4694.00,7.09
4693.00,7.18
4692.00,7.27
4691.00,7.35
4690.00,7.44
4689.00,7.53
4688.00,7.61
4687.00,7.70
4686.00,7.79
4685.00,7.88
4684.00,7.97
4683.00,8.06
4682.00,8.15
4681.00,8.24
4680.00,8.33
4679.00,8.43
4678.00,8.52
4677.00,8.62
4676.00,8.73
4675.00,8.83
4674.00,8.93
4673.00,9.04
4672.00,9.14
4671.00,9.25
4670.00,9.36
4669.00,9.47
4668.00,9.59
4667.00,9.70
4666.00,9.82
4665.00,9.94
4664.00,10.07
4663.00,10.20
4662.00,10.32
4661.00,10.45
4660.00,10.58
4659.00,10.71
4658.00,10.84
4657.00,10.98
4656.00,11.12
4655.00,11.26
4654.00,11.41
4653.00,11.55
4652.00,11.70
4651.00,11.85
4650.00,12.00
4649.00,12.15
4648.00,12.30
4647.00,12.45
4646.00,12.60
4645.00,12.75
4644.00,12.90
4643.00,13.06
4642.00,13.21
4641.00,13.36
4640.00,13.52
4639.00,13.67
4638.00,13.83
4637.00,13.98
4636.00,14.13
4635.00,14.27
4634.00,14.42
4633.00,14.56
4632.00,14.69
4631.00,14.82
4630.00,14.95
4629.00,15.07
4628.00,15.18
4627.00,15.28
4626.00,15.38
4625.00,15.46
4624.00,15.54
4623.00,15.60
4622.00,15.65
4621.00,15.69
4620.00,15.71
4619.00,15.72
4618.00,15.71
4617.00,15.69
4616.00,15.66
4615.00,15.61
4614.00,15.54
4613.00,15.45
4612.00,15.35
4611.00,15.23
4610.00,15.09
4609.00,14.93
4608.00,14.77
4607.00,14.59
4606.00,14.39
4605.00,14.18
4604.00,13.96
4603.00,13.73
4602.00,13.49
4601.00,13.23
4600.00,12.98
4599.00,12.71
4598.00,12.44
4597.00,12.17
4596.00,11.90
4595.00,11.62
4594.00,11.34
4593.00,11.06
4592.00,10.78
4591.00,10.51
4590.00,10.24
4589.00,9.97
4588.00,9.71
4587.00,9.45
4586.00,9.20
4585.00,8.95
4584.00,8.71
4583.00,8.47
4582.00,8.24
4581.00,8.01
4580.00,7.80
4579.00,7.59
4578.00,7.39
4577.00,7.20
4576.00,7.01
4575.00,6.83
4574.00,6.65
4573.00,6.49
4572.00,6.32
4571.00,6.17
4570.00,6.02
4569.00,5.87
4568.00,5.73
4567.00,5.60
4566.00,5.47
4565.00,5.35
4564.00,5.23
4563.00,5.12
4562.00,5.01
4561.00,4.91
4560.00,4.81
4559.00,4.72
4558.00,4.63
4557.00,4.55
4556.00,4.47
4555.00,4.39
4554.00,4.32
4553.00,4.25
4552.00,4.18
4551.00,4.12
4550.00,4.06
4549.00,4.00
4548.00,3.95
4547.00,3.89
4546.00,3.84
4545.00,3.80
4544.00,3.75
4543.00,3.71
4542.00,3.67
4541.00,3.63
4540.00,3.60
4539.00,3.57
4538.00,3.53
4537.00,3.51
4536.00,3.48
4535.00,3.46
4534.00,3.43
4533.00,3.41
4532.00,3.39
4531.00,3.38
4530.00,3.36
4529.00,3.35
4528.00,3.34
4527.00,3.33
4526.00,3.32
4525.00,3.31
4524.00,3.31
4523.00,3.30
4522.00,3.30
4521.00,3.30
4520.00,3.30
4519.00,3.31
4518.00,3.31
4517.00,3.32
4516.00,3.33
4515.00,3.34
4514.00,3.35
4513.00,3.36
4512.00,3.38
4511.00,3.40
4510.00,3.42
4509.00,3.44
4508.00,3.46
4507.00,3.49
4506.00,3.52
4505.00,3.54
4504.00,3.57
4503.00,3.61
4502.00,3.64
4501.00,3.68
4500.00,3.72
4499.00,3.77
4498.00,3.81
4497.00,3.86
4496.00,3.91
4495.00,3.96
4494.00,4.01
4493.00,4.06
4492.00,4.12
4491.00,4.17
4490.00,4.24
4489.00,4.30
4488.00,4.36
4487.00,4.43
4486.00,4.49
4485.00,4.56
4484.00,4.63
4483.00,4.70
4482.00,4.77
4481.00,4.85
4480.00,4.92
4479.00,5.00
4478.00,5.08
4477.00,5.16
4476.00,5.24
4475.00,5.32
4474.00,5.40
4473.00,5.48
4472.00,5.57
4471.00,5.65
4470.00,5.73
4469.00,5.82
4468.00,5.91
4467.00,5.99
4466.00,6.08
4465.00,6.17
4464.00,6.26
4463.00,6.35
4462.00,6.44
4461.00,6.53
4460.00,6.63
4459.00,6.72
4458.00,6.81
4457.00,6.91
4456.00,7.00
4455.00,7.10
4454.00,7.20
4453.00,7.29
4452.00,7.39
4451.00,7.49
4450.00,7.59
4449.00,7.69
4448.00,7.79
4447.00,7.90
4446.00,8.00
4445.00,8.11
4444.00,8.21
4443.00,8.32
4442.00,8.43
4441.00,8.54
4440.00,8.65
4439.00,8.76
4438.00,8.87
4437.00,8.98
4436.00,9.10
4435.00,9.21
4434.00,9.33
4433.00,9.45
4432.00,9.57
4431.00,9.69
4430.00,9.81
4429.00,9.93
4428.00,10.06
4427.00,10.18
4426.00,10.31
4425.00,10.44
4424.00,10.57
4423.00,10.70
4422.00,10.83
4421.00,10.96
4420.00,11.09
4419.00,11.23
4418.00,11.36
4417.00,11.50
4416.00,11.64
4415.00,11.77
4414.00,11.91
4413.00,12.04
4412.00,12.18
4411.00,12.32
4410.00,12.45
4409.00,12.59
4408.00,12.72
4407.00,12.85
4406.00,12.98
4405.00,13.10
4404.00,13.22
4403.00,13.33
4402.00,13.44
4401.00,13.54
4400.00,13.64
4399.00,13.72
4398.00,13.80
4397.00,13.87
4396.00,13.92
4395.00,13.97
4394.00,14.00
4393.00,14.02
4392.00,14.03
4391.00,14.02
4390.00,14.00
4389.00,13.97
4388.00,13.92
4387.00,13.85
4386.00,13.77
4385.00,13.68
4384.00,13.56
4383.00,13.43
4382.00,13.29
4381.00,13.13
4380.00,12.97
4379.00,12.79
4378.00,12.60
4377.00,12.40
4376.00,12.19
4375.00,11.98
4374.00,11.75
4373.00,11.53
4372.00,11.30
4371.00,11.06
4370.00,10.83
4369.00,10.59
4368.00,10.36
4367.00,10.12
4366.00,9.89
4365.00,9.66
4364.00,9.43
4363.00,9.20
4362.00,8.98
4361.00,8.76
4360.00,8.54
4359.00,8.32
4358.00,8.11
4357.00,7.90
4356.00,7.69
4355.00,7.49
4354.00,7.29
4353.00,7.09
4352.00,6.90
4351.00,6.72
4350.00,6.54
4349.00,6.36
4348.00,6.19
4347.00,6.03
4346.00,5.87
4345.00,5.72
4344.00,5.58
4343.00,5.44
4342.00,5.30
4341.00,5.17
4340.00,5.05
4339.00,4.93
4338.00,4.81
4337.00,4.70
4336.00,4.59
4335.00,4.49
4334.00,4.39
4333.00,4.30
4332.00,4.21
4331.00,4.12
4330.00,4.03
4329.00,3.95
4328.00,3.88
4327.00,3.80
4326.00,3.73
4325.00,3.66
4324.00,3.60
4323.00,3.54
4322.00,3.48
4321.00,3.43
4320.00,3.38
4319.00,3.33
4318.00,3.28
4317.00,3.23
4316.00,3.19
4315.00,3.15
4314.00,3.11
4313.00,3.07
4312.00,3.04
4311.00,3.00
4310.00,2.97
4309.00,2.94
4308.00,2.92
4307.00,2.89
4306.00,2.87
4305.00,2.85
4304.00,2.83
4303.00,2.81
4302.00,2.80
4301.00,2.78
4300.00,2.76
4299.00,2.75
4298.00,2.73
4297.00,2.72
4296.00,2.72
4295.00,2.71
4294.00,2.71
4293.00,2.70
4292.00,2.70
4291.00,2.69
4290.00,2.69
4289.00,2.69
4288.00,2.69
4287.00,2.70
4286.00,2.70
4285.00,2.71
4284.00,2.71
4283.00,2.72
4282.00,2.73
4281.00,2.74
4280.00,2.76
4279.00,2.77
4278.00,2.78
4277.00,2.80
4276.00,2.82
4275.00,2.84
4274.00,2.86
4273.00,2.89
4272.00,2.91
4271.00,2.94
4270.00,2.97
4269.00,3.00
4268.00,3.03
4267.00,3.07
4266.00,3.10
4265.00,3.14
4264.00,3.18
4263.00,3.22
4262.00,3.26
4261.00,3.31
4260.00,3.36
4259.00,3.41
4258.00,3.46
4257.00,3.52
4256.00,3.57
4255.00,3.63
4254.00,3.69
4253.00,3.75
4252.00,3.82
4251.00,3.89
4250.00,3.96
4249.00,4.03
4248.00,4.10
4247.00,4.17
4246.00,4.25
4245.00,4.33
4244.00,4.41
4243.00,4.49
4242.00,4.56
4241.00,4.64
4240.00,4.72
4239.00,4.80
4238.00,4.89
4237.00,4.97
4236.00,5.06
4235.00,5.14
4234.00,5.23
4233.00,5.31
4232.00,5.40
4231.00,5.48
4230.00,5.57
4229.00,5.65
4228.00,5.74
4227.00,5.83
4226.00,5.91
4225.00,6.00
4224.00,6.09
4223.00,6.18
4222.00,6.27
4221.00,6.35
4220.00,6.44
4219.00,6.54
4218.00,6.63
4217.00,6.72
4216.00,6.82
4215.00,6.92
4214.00,7.02
4213.00,7.12
4212.00,7.22
4211.00,7.32
4210.00,7.43
4209.00,7.54
4208.00,7.65
4207.00,7.76
4206.00,7.88
4205.00,7.99
4204.00,8.11
4203.00,8.22
4202.00,8.34
4201.00,8.46
4200.00,8.58
4199.00,8.71
4198.00,8.83
4197.00,8.95
4196.00,9.08
4195.00,9.21
4194.00,9.34
4193.00,9.46
4192.00,9.59
4191.00,9.72
4190.00,9.85
4189.00,9.99
4188.00,10.12
4187.00,10.25
4186.00,10.39
4185.00,10.52
4184.00,10.66
4183.00,10.80
4182.00,10.94
4181.00,11.08
4180.00,11.23
4179.00,11.37
4178.00,11.51
4177.00,11.66
4176.00,11.80
4175.00,11.94
4174.00,12.08
4173.00,12.22
4172.00,12.35
4171.00,12.48
4170.00,12.60
4169.00,12.72
4168.00,12.84
4167.00,12.95
4166.00,13.05
4165.00,13.15
4164.00,13.23
4163.00,13.30
4162.00,13.36
4161.00,13.41
4160.00,13.45
4159.00,13.47
4158.00,13.47
4157.00,13.46
4156.00,13.43
4155.00,13.38
4154.00,13.32
4153.00,13.23
4152.00,13.13
4151.00,13.01
4150.00,12.88
4149.00,12.73
4148.00,12.56
4147.00,12.38
4146.00,12.18
4145.00,11.97
4144.00,11.75
4143.00,11.52
4142.00,11.28
4141.00,11.03
4140.00,10.77
4139.00,10.51
4138.00,10.24
4137.00,9.97
4136.00,9.70
4135.00,9.42
4134.00,9.15
4133.00,8.88
4132.00,8.61
4131.00,8.35
4130.00,8.09
4129.00,7.84
4128.00,7.59
4127.00,7.35
4126.00,7.11
4125.00,6.89
4124.00,6.67
4123.00,6.46
4122.00,6.26
4121.00,6.07
4120.00,5.88
4119.00,5.70
4118.00,5.52
4117.00,5.36
4116.00,5.20
4115.00,5.04
4114.00,4.90
4113.00,4.76
4112.00,4.62
4111.00,4.49
4110.00,4.36
4109.00,4.25
4108.00,4.14
4107.00,4.03
4106.00,3.93
4105.00,3.83
4104.00,3.74
4103.00,3.65
4102.00,3.57
4101.00,3.49
4100.00,3.41
4099.00,3.34
4098.00,3.26
4097.00,3.20
4096.00,3.13
4095.00,3.08
4094.00,3.02
4093.00,2.96
4092.00,2.91
4091.00,2.87
4090.00,2.82
4089.00,2.77
4088.00,2.73
4087.00,2.69
4086.00,2.65
4085.00,2.62
4084.00,2.58
4083.00,2.55
4082.00,2.51
4081.00,2.48
4080.00,2.46
4079.00,2.43
4078.00,2.41
4077.00,2.38
4076.00,2.36
4075.00,2.34
4074.00,2.32
4073.00,2.30
4072.00,2.28
4071.00,2.27
4070.00,2.26
4069.00,2.24
4068.00,2.24
4067.00,2.23
4066.00,2.22
4065.00,2.21
4064.00,2.20
4063.00,2.19
4062.00,2.18
4061.00,2.18
4060.00,2.18
4059.00,2.17
4058.00,2.18
4057.00,2.18
4056.00,2.18
4055.00,2.18
4054.00,2.19
4053.00,2.19
4052.00,2.20
4051.00,2.21
4050.00,2.21
4049.00,2.22
4048.00,2.23
4047.00,2.24
4046.00,2.26
4045.00,2.27
4044.00,2.29
4043.00,2.31
4042.00,2.33
4041.00,2.35
4040.00,2.37
4039.00,2.39
4038.00,2.42
4037.00,2.44
4036.00,2.47
4035.00,2.50
4034.00,2.53
4033.00,2.57
4032.00,2.61
4031.00,2.64
4030.00,2.68
4029.00,2.72
4028.00,2.77
4027.00,2.81
4026.00,2.86
4025.00,2.91
4024.00,2.97
4023.00,3.02
4022.00,3.08
4021.00,3.13
4020.00,3.19
4019.00,3.25
4018.00,3.32
4017.00,3.38
4016.00,3.45
4015.00,3.51
4014.00,3.58
4013.00,3.65
4012.00,3.72
4011.00,3.79
4010.00,3.87
4009.00,3.94
4008.00,4.02
4007.00,4.09
4006.00,4.17
4005.00,4.25
4004.00,4.34
4003.00,4.42
4002.00,4.51
4001.00,4.60
4000.00,4.68
3999.00,4.77
3998.00,4.86
3997.00,4.95
3996.00,5.04
3995.00,5.14
3994.00,5.23
3993.00,5.32
3992.00,5.42
3991.00,5.51
3990.00,5.60
3989.00,5.70
3988.00,5.79
3987.00,5.89
3986.00,5.99
3985.00,6.09
3984.00,6.19
3983.00,6.29
3982.00,6.39
3981.00,6.49
3980.00,6.59
3979.00,6.69
3978.00,6.80
3977.00,6.90
3976.00,7.01
3975.00,7.12
3974.00,7.23
3973.00,7.33
3972.00,7.44
3971.00,7.56
3970.00,7.67
3969.00,7.79
3968.00,7.90
3967.00,8.02
3966.00,8.14
3965.00,8.26
3964.00,8.38
3963.00,8.50
3962.00,8.62
3961.00,8.74
3960.00,8.87
3959.00,8.99
3958.00,9.12
3957.00,9.24
3956.00,9.37
3955.00,9.50
3954.00,9.63
3953.00,9.77
3952.00,9.90
3951.00,10.04
3950.00,10.18
3949.00,10.32
3948.00,10.47
3947.00,10.63
3946.00,10.78
3945.00,10.93
3944.00,11.08
3943.00,11.23
3942.00,11.38
3941.00,11.54
3940.00,11.69
3939.00,11.84
3938.00,11.98
3937.00,12.12
3936.00,12.25
3935.00,12.37
3934.00,12.48
3933.00,12.58
3932.00,12.68
3931.00,12.78
3930.00,12.86
3929.00,12.92
3928.00,12.96
3927.00,12.97
3926.00,12.96
3925.00,12.94
3924.00,12.90
3923.00,12.84
3922.00,12.75
3921.00,12.64
3920.00,12.51
3919.00,12.35
3918.00,12.17
3917.00,11.97
3916.00,11.74
3915.00,11.50
3914.00,11.24
3913.00,10.97
3912.00,10.68
3911.00,10.39
3910.00,10.10
3909.00,9.81
3908.00,9.53
3907.00,9.24
3906.00,8.95
3905.00,8.67
3904.00,8.38
3903.00,8.09
3902.00,7.80
3901.00,7.51
3900.00,7.23
3899.00,6.95
3898.00,6.68
3897.00,6.42
3896.00,6.18
3895.00,5.95
3894.00,5.73
3893.00,5.52
3892.00,5.32
3891.00,5.13
3890.00,4.95
3889.00,4.78
3888.00,4.62
3887.00,4.47
3886.00,4.32
3885.00,4.18
3884.00,4.04
3883.00,3.91
3882.00,3.79
3881.00,3.68
3880.00,3.57
3879.00,3.46
3878.00,3.36
3877.00,3.27
3876.00,3.18
3875.00,3.10
3874.00,3.03
3873.00,2.96
3872.00,2.89
3871.00,2.82
3870.00,2.77
3869.00,2.71
3868.00,2.65
3867.00,2.59
3866.00,2.53
3865.00,2.48
3864.00,2.43
3863.00,2.38
3862.00,2.34
3861.00,2.30
3860.00,2.26
3859.00,2.23
3858.00,2.19
3857.00,2.17
3856.00,2.14
3855.00,2.12
3854.00,2.09
3853.00,2.07
3852.00,2.04
3851.00,2.01
3850.00,1.99
3849.00,1.96
3848.00,1.93
3847.00,1.91
3846.00,1.89
3845.00,1.87
3844.00,1.85
3843.00,1.84
3842.00,1.83
3841.00,1.83
3840.00,1.82
3839.00,1.81
3838.00,1.80
3837.00,1.79
3836.00,1.78
3835.00,1.77
3834.00,1.77
3833.00,1.76
3832.00,1.75
3831.00,1.75
3830.00,1.74
3829.00,1.74
3828.00,1.73
3827.00,1.74
3826.00,1.74
3825.00,1.74
3824.00,1.75
3823.00,1.75
3822.00,1.76
3821.00,1.77
3820.00,1.78
3819.00,1.79
3818.00,1.80
3817.00,1.81
3816.00,1.82
3815.00,1.83
3814.00,1.83
3813.00,1.85
3812.00,1.86
3811.00,1.88
3810.00,1.89
3809.00,1.91
3808.00,1.94
3807.00,1.97
3806.00,1.99
3805.00,2.02
3804.00,2.05
3803.00,2.08
3802.00,2.12
3801.00,2.15
3800.00,2.18
3799.00,2.21
3798.00,2.24
3797.00,2.28
3796.00,2.33
3795.00,2.36
3794.00,2.40
3793.00,2.44
3792.00,2.49
3791.00,2.54
3790.00,2.60
3789.00,2.66
3788.00,2.72
3787.00,2.78
3786.00,2.84
3785.00,2.91
3784.00,2.98
3783.00,3.05
3782.00,3.12
3781.00,3.20
3780.00,3.28
3779.00,3.35
3778.00,3.42
3777.00,3.49
3776.00,3.57
3775.00,3.66
3774.00,3.74
3773.00,3.83
3772.00,3.92
3771.00,4.02
3770.00,4.11
3769.00,4.19
3768.00,4.28
3767.00,4.36
3766.00,4.46
3765.00,4.55
3764.00,4.64
3763.00,4.73
3762.00,4.82
3761.00,4.93
3760.00,5.03
3759.00,5.13
3758.00,5.24
3757.00,5.35
3756.00,5.46
3755.00,5.58
3754.00,5.70
3753.00,5.83
3752.00,5.95
3751.00,6.07
3750.00,6.21
3749.00,6.35
3748.00,6.48
3747.00,6.59
3746.00,6.70
3745.00,6.81
3744.00,6.94
3743.00,7.06
3742.00,7.18
3741.00,7.29
3740.00,7.40
3739.00,7.50
3738.00,7.60
3737.00,7.71
3736.00,7.84
3735.00,7.99
3734.00,8.13
3733.00,8.27
3732.00,8.42
3731.00,8.56
3730.00,8.69
3729.00,8.82
3728.00,8.97
3727.00,9.13
3726.00,9.28
3725.00,9.40
3724.00,9.51
3723.00,9.62
3722.00,9.76
3721.00,9.91
3720.00,10.07
3719.00,10.23
3718.00,10.40
3717.00,10.56
3716.00,10.71
3715.00,10.85
3714.00,10.99
3713.00,11.13
3712.00,11.31
3711.00,11.52
3710.00,11.72
3709.00,11.89
3708.00,12.03
3707.00,12.13
3706.00,12.19
3705.00,12.23
3704.00,12.25
3703.00,12.26
3702.00,12.27
3701.00,12.27
3700.00,12.25
3699.00,12.20
3698.00,12.11
3697.00,11.99
3696.00,11.84
3695.00,11.67
3694.00,11.48
3693.00,11.27
3692.00,11.04
3691.00,10.79
3690.00,10.52
3689.00,10.23
3688.00,9.92
3687.00,9.61
3686.00,9.28
3685.00,8.96
3684.00,8.63
3683.00,8.30
3682.00,7.98
3681.00,7.68
3680.00,7.39
3679.00,7.11
3678.00,6.84
3677.00,6.57
3676.00,6.31
3675.00,6.04
3674.00,5.78
3673.00,5.54
3672.00,5.30
3671.00,5.08
3670.00,4.86
3669.00,4.64
3668.00,4.43
3667.00,4.24
3666.00,4.06
3665.00,3.90
3664.00,3.74
3663.00,3.60
3662.00,3.47
3661.00,3.35
3660.00,3.23
3659.00,3.13
3658.00,3.03
3657.00,2.93
3656.00,2.84
3655.00,2.76
3654.00,2.68
3653.00,2.61
3652.00,2.54
3651.00,2.48
3650.00,2.42
3649.00,2.35
3648.00,2.29
3647.00,2.23
3646.00,2.17
3645.00,2.11
3644.00,2.06
3643.00,2.00
3642.00,1.95
3641.00,1.91
3640.00,1.86
3639.00,1.83
3638.00,1.79
3637.00,1.76
3636.00,1.73
3635.00,1.70
3634.00,1.68
3633.00,1.66
3632.00,1.64
3631.00,1.61
3630.00,1.59
3629.00,1.57
3628.00,1.55
3627.00,1.53
3626.00,1.51
3625.00,1.49
3624.00,1.48
3623.00,1.46
3622.00,1.44
3621.00,1.42
3620.00,1.41
3619.00,1.39
3618.00,1.38
3617.00,1.37
3616.00,1.36
3615.00,1.35
3614.00,1.34
3613.00,1.33
3612.00,1.32
3611.00,1.32
3610.00,1.31
3609.00,1.30
3608.00,1.30
3607.00,1.29
3606.00,1.28
3605.00,1.28
3604.00,1.27
3603.00,1.26
3602.00,1.26
3601.00,1.26
3600.00,1.26
3599.00,1.26
3598.00,1.26
3597.00,1.26
3596.00,1.26
3595.00,1.26
3594.00,1.26
3593.00,1.27
3592.00,1.27
3591.00,1.27
3590.00,1.28
3589.00,1.29
3588.00,1.29
3587.00,1.30
3586.00,1.31
3585.00,1.31
3584.00,1.32
3583.00,1.33
3582.00,1.34
3581.00,1.35
3580.00,1.36
3579.00,1.37
3578.00,1.38
3577.00,1.40
3576.00,1.41
3575.00,1.43
3574.00,1.45
3573.00,1.47
3572.00,1.49
3571.00,1.51
3570.00,1.54
3569.00,1.57
3568.00,1.59
3567.00,1.62
3566.00,1.64
3565.00,1.67
3564.00,1.70
3563.00,1.73
3562.00,1.77
3561.00,1.80
3560.00,1.84
3559.00,1.87
3558.00,1.91
3557.00,1.96
3556.00,2.00
3555.00,2.05
3554.00,2.10
3553.00,2.15
3552.00,2.20
3551.00,2.25
3550.00,2.30
3549.00,2.36
3548.00,2.42
3547.00,2.47
3546.00,2.53
3545.00,2.59
3544.00,2.64
3543.00,2.70
3542.00,2.76
3541.00,2.82
3540.00,2.89
3539.00,2.95
3538.00,3.02
3537.00,3.08
3536.00,3.14
3535.00,3.21
3534.00,3.28
3533.00,3.35
3532.00,3.42
3531.00,3.49
3530.00,3.56
3529.00,3.63
3528.00,3.70
3527.00,3.78
3526.00,3.85
3525.00,3.92
3524.00,3.99
3523.00,4.06
3522.00,4.14
3521.00,4.21
3520.00,4.29
3519.00,4.36
3518.00,4.44
3517.00,4.52
3516.00,4.60
3515.00,4.68
3514.00,4.76
3513.00,4.84
3512.00,4.93
3511.00,5.02
3510.00,5.11
3509.00,5.20
3508.00,5.29
3507.00,5.38
3506.00,5.48
3505.00,5.57
3504.00,5.67
3503.00,5.77
3502.00,5.87
3501.00,5.98
3500.00,6.08
3499.00,6.18
3498.00,6.29
3497.00,6.39
3496.00,6.50
3495.00,6.61
3494.00,6.73
3493.00,6.84
3492.00,6.96
3491.00,7.07
3490.00,7.18
3489.00,7.30
3488.00,7.41
3487.00,7.53
3486.00,7.65
3485.00,7.76
3484.00,7.87
3483.00,7.97
3482.00,8.08
3481.00,8.18
3480.00,8.28
3479.00,8.36
3478.00,8.44
3477.00,8.51
3476.00,8.57
3475.00,8.62
3474.00,8.66
3473.00,8.69
3472.00,8.70
3471.00,8.69
3470.00,8.67
3469.00,8.63
3468.00,8.58
3467.00,8.50
3466.00,8.40
3465.00,8.28
3464.00,8.15
3463.00,8.00
3462.00,7.83
3461.00,7.65
3460.00,7.46
3459.00,7.25
3458.00,7.04
3457.00,6.82
3456.00,6.59
3455.00,6.36
3454.00,6.13
3453.00,5.91
3452.00,5.68
3451.00,5.46
3450.00,5.24
3449.00,5.03
3448.00,4.82
3447.00,4.62
3446.00,4.43
3445.00,4.24
3444.00,4.06
3443.00,3.89
3442.00,3.73
3441.00,3.57
3440.00,3.42
3439.00,3.28
3438.00,3.15
3437.00,3.03
3436.00,2.91
3435.00,2.79
3434.00,2.69
3433.00,2.58
3432.00,2.49
3431.00,2.40
3430.00,2.31
3429.00,2.23
3428.00,2.16
3427.00,2.08
3426.00,2.02
3425.00,1.95
3424.00,1.89
3423.00,1.84
3422.00,1.78
3421.00,1.73
3420.00,1.69
3419.00,1.64
3418.00,1.60
3417.00,1.56
3416.00,1.52
3415.00,1.49
3414.00,1.46
3413.00,1.43
3412.00,1.40
3411.00,1.38
3410.00,1.35
3409.00,1.33
3408.00,1.31
3407.00,1.29
3406.00,1.28
3405.00,1.26
3404.00,1.25
3403.00,1.23
3402.00,1.22
3401.00,1.21
3400.00,1.19
3399.00,1.18
3398.00,1.17
3397.00,1.16
3396.00,1.15
3395.00,1.14
3394.00,1.13
3393.00,1.11
3392.00,1.10
3391.00,1.09
3390.00,1.08
3389.00,1.07
3388.00,1.06
3387.00,1.06
3386.00,1.05
3385.00,1.04
3384.00,1.03
3383.00,1.02
3382.00,1.02
3381.00,1.01
3380.00,1.01
3379.00,1.00
3378.00,0.99
3377.00,0.99
3376.00,0.98
3375.00,0.98
3374.00,0.98
3373.00,0.97
3372.00,0.97
3371.00,0.97
3370.00,0.97
3369.00,0.97
3368.00,0.97
3367.00,0.97
3366.00,0.97
3365.00,0.97
3364.00,0.97
3363.00,0.97
3362.00,0.98
3361.00,0.98
3360.00,0.98
3359.00,0.99
3358.00,0.99
3357.00,0.99
3356.00,1.00
3355.00,1.00
3354.00,1.01
3353.00,1.02
3352.00,1.02
3351.00,1.03
3350.00,1.04
3349.00,1.05
3348.00,1.06
3347.00,1.07
3346.00,1.08
3345.00,1.09
3344.00,1.11
3343.00,1.12
3342.00,1.14
3341.00,1.16
3340.00,1.18
3339.00,1.19
3338.00,1.21
3337.00,1.23
3336.00,1.26
3335.00,1.28
3334.00,1.30
3333.00,1.33
3332.00,1.36
3331.00,1.39
3330.00,1.42
3329.00,1.45
3328.00,1.49
3327.00,1.52
3326.00,1.56
3325.00,1.60
3324.00,1.64
3323.00,1.69
3322.00,1.74
3321.00,1.79
3320.00,1.84
3319.00,1.89
3318.00,1.95
3317.00,2.00
3316.00,2.06
3315.00,2.12
3314.00,2.19
3313.00,2.25
3312.00,2.32
3311.00,2.39
3310.00,2.45
3309.00,2.53
3308.00,2.60
3307.00,2.67
3306.00,2.74
3305.00,2.82
3304.00,2.89
3303.00,2.97
3302.00,3.05
3301.00,3.12
3300.00,3.20
3299.00,3.28
3298.00,3.36
3297.00,3.45
3296.00,3.53
3295.00,3.61
3294.00,3.69
3293.00,3.78
3292.00,3.86
3291.00,3.95
3290.00,4.04
3289.00,4.13
3288.00,4.22
3287.00,4.31
3286.00,4.40
3285.00,4.49
3284.00,4.58
3283.00,4.68
3282.00,4.77
3281.00,4.87
3280.00,4.97
3279.00,5.06
3278.00,5.16
3277.00,5.26
3276.00,5.36
3275.00,5.47
3274.00,5.58
3273.00,5.68
3272.00,5.79
3271.00,5.90
3270.00,6.02
3269.00,6.13
3268.00,6.24
3267.00,6.36
3266.00,6.47
3265.00,6.59
3264.00,6.72
3263.00,6.84
3262.00,6.96
3261.00,7.08
3260.00,7.21
3259.00,7.33
3258.00,7.45
3257.00,7.57
3256.00,7.69
3255.00,7.81
3254.00,7.92
3253.00,8.03
3252.00,8.12
3251.00,8.21
3250.00,8.29
3249.00,8.36
3248.00,8.42
3247.00,8.46
3246.00,8.48
3245.00,8.49
3244.00,8.48
3243.00,8.44
3242.00,8.38
3241.00,8.31
3240.00,8.20
3239.00,8.08
3238.00,7.94
3237.00,7.77
3236.00,7.59
3235.00,7.39
3234.00,7.18
3233.00,6.96
3232.00,6.73
3231.00,6.49
3230.00,6.25
3229.00,6.00
3228.00,5.76
3227.00,5.52
3226.00,5.28
3225.00,5.05
3224.00,4.82
3223.00,4.60
3222.00,4.39
3221.00,4.19
3220.00,3.99
3219.00,3.81
3218.00,3.64
3217.00,3.47
3216.00,3.31
3215.00,3.16
3214.00,3.02
3213.00,2.89
3212.00,2.76
3211.00,2.65
3210.00,2.54
3209.00,2.44
3208.00,2.34
3207.00,2.25
3206.00,2.16
3205.00,2.08
3204.00,2.00
3203.00,1.93
3202.00,1.86
3201.00,1.80
3200.00,1.74
3199.00,1.69
3198.00,1.63
3197.00,1.58
3196.00,1.54
3195.00,1.49
3194.00,1.45
3193.00,1.41
3192.00,1.38
3191.00,1.34
3190.00,1.31
3189.00,1.27
3188.00,1.24
3187.00,1.21
3186.00,1.19
3185.00,1.16
3184.00,1.14
3183.00,1.12
3182.00,1.10
3181.00,1.07
3180.00,1.05
3179.00,1.03
3178.00,1.01
3177.00,1.00
3176.00,0.98
3175.00,0.97
3174.00,0.95
3173.00,0.94
3172.00,0.92
3171.00,0.91
3170.00,0.90
3169.00,0.89
3168.00,0.88
3167.00,0.87
3166.00,0.86
3165.00,0.85
3164.00,0.84
3163.00,0.83
3162.00,0.83
3161.00,0.82
3160.00,0.81
3159.00,0.81
3158.00,0.80
3157.00,0.79
3156.00,0.79
3155.00,0.78
3154.00,0.78
3153.00,0.78
3152.00,0.77
3151.00,0.77
3150.00,0.77
3149.00,0.77
3148.00,0.77
3147.00,0.77
3146.00,0.77
3145.00,0.77
3144.00,0.77
3143.00,0.77
3142.00,0.77
3141.00,0.77
3140.00,0.77
3139.00,0.77
3138.00,0.77
3137.00,0.78
3136.00,0.78
3135.00,0.78
3134.00,0.79
3133.00,0.79
3132.00,0.80
3131.00,0.81
3130.00,0.82
3129.00,0.82
3128.00,0.83
3127.00,0.84
3126.00,0.85
3125.00,0.86
3124.00,0.87
3123.00,0.88
3122.00,0.89
3121.00,0.91
3120.00,0.92
3119.00,0.94
3118.00,0.96
3117.00,0.97
3116.00,0.99
3115.00,1.01
3114.00,1.03
3113.00,1.06
3112.00,1.08
3111.00,1.11
3110.00,1.13
3109.00,1.17
3108.00,1.20
3107.00,1.23
3106.00,1.27
3105.00,1.31
3104.00,1.35
3103.00,1.39
3102.00,1.44
3101.00,1.49
3100.00,1.54
3099.00,1.59
3098.00,1.65
3097.00,1.71
3096.00,1.78
3095.00,1.84
3094.00,1.91
3093.00,1.98
3092.00,2.05
3091.00,2.12
3090.00,2.20
3089.00,2.27
3088.00,2.35
3087.00,2.43
3086.00,2.51
3085.00,2.59
3084.00,2.67
3083.00,2.75
3082.00,2.83
3081.00,2.91
3080.00,3.00
3079.00,3.08
3078.00,3.17
3077.00,3.25
3076.00,3.34
3075.00,3.43
3074.00,3.51
3073.00,3.60
3072.00,3.69
3071.00,3.77
3070.00,3.86
3069.00,3.95
3068.00,4.04
3067.00,4.13
3066.00,4.22
3065.00,4.31
3064.00,4.40
3063.00,4.49
3062.00,4.59
3061.00,4.69
3060.00,4.79
3059.00,4.89
3058.00,4.99
3057.00,5.09
3056.00,5.20
3055.00,5.31
3054.00,5.42
3053.00,5.54
3052.00,5.65
3051.00,5.77
3050.00,5.89
3049.00,6.01
3048.00,6.13
3047.00,6.24
3046.00,6.35
3045.00,6.44
3044.00,6.52
3043.00,6.59
3042.00,6.63
3041.00,6.65
3040.00,6.64
3039.00,6.60
3038.00,6.52
3037.00,6.41
3036.00,6.27
3035.00,6.09
3034.00,5.89
3033.00,5.67
3032.00,5.43
3031.00,5.18
3030.00,4.92
3029.00,4.65
3028.00,4.39
3027.00,4.14
3026.00,3.89
3025.00,3.65
3024.00,3.42
3023.00,3.20
3022.00,2.99
3021.00,2.79
3020.00,2.61
3019.00,2.44
3018.00,2.28
3017.00,2.14
3016.00,2.00
3015.00,1.88
3014.00,1.76
3013.00,1.66
3012.00,1.56
3011.00,1.47
3010.00,1.38
3009.00,1.30
3008.00,1.23
3007.00,1.17
3006.00,1.11
3005.00,1.05
3004.00,1.00
3003.00,0.96
3002.00,0.91
3001.00,0.87
3000.00,0.84
2999.00,0.80
2998.00,0.77
2997.00,0.74
2996.00,0.72
2995.00,0.69
2994.00,0.67
2993.00,0.65
2992.00,0.63
2991.00,0.61
2990.00,0.59
2989.00,0.58
2988.00,0.56
2987.00,0.55
2986.00,0.54
2985.00,0.53
2984.00,0.52
2983.00,0.51
2982.00,0.50
2981.00,0.49
2980.00,0.48
2979.00,0.48
2978.00,0.47
2977.00,0.46
2976.00,0.45
2975.00,0.43
2974.00,0.42
2973.00,0.40
2972.00,0.38
2971.00,0.35
2970.00,0.33
2969.00,0.30
2968.00,0.27
2967.00,0.24
2966.00,0.21
2965.00,0.19
2964.00,0.16
2963.00,0.14
2962.00,0.12
2961.00,0.11
2960.00,0.09
2959.00,0.08
2958.00,0.07
2957.00,0.06
2956.00,0.06
2955.00,0.05
2954.00,0.05
2953.00,0.04
2952.00,0.04
2951.00,0.03
2950.00,0.03
2949.00,0.03
2948.00,0.03
2947.00,0.03
2946.00,0.02
2945.00,0.02
2944.00,0.02
2943.00,0.02
2942.00,0.02
2941.00,0.02
2940.00,0.01
2939.00,0.01
2938.00,0.01
2937.00,0.01
2936.00,0.01
2935.00,0.01
2934.00,0.01
2933.00,0.01
2932.00,0.02
2931.00,0.02
2930.00,0.02
2929.00,0.02
2928.00,0.03
2927.00,0.03
2926.00,0.04
2925.00,0.05
2924.00,0.06
2923.00,0.07
2922.00,0.08
2921.00,0.09
2920.00,0.10
2919.00,0.11
2918.00,0.13
2917.00,0.15
2916.00,0.17
2915.00,0.19
2914.00,0.21
2913.00,0.23
2912.00,0.24
2911.00,0.26
2910.00,0.27
2909.00,0.28
2908.00,0.28
2907.00,0.29
2906.00,0.30
2905.00,0.30
2904.00,0.31
2903.00,0.31
2902.00,0.32
2901.00,0.32
2900.00,0.33
2899.00,0.33
2898.00,0.33
2897.00,0.33
2896.00,0.33
2895.00,0.33
2894.00,0.33
2893.00,0.33
2892.00,0.33
2891.00,0.33
2890.00,0.33
2889.00,0.33
2888.00,0.32
2887.00,0.32
2886.00,0.32
2885.00,0.31
2884.00,0.31
2883.00,0.30
2882.00,0.30
2881.00,0.29
2880.00,0.28
2879.00,0.27
2878.00,0.26
2877.00,0.25
2876.00,0.25
2875.00,0.23
2874.00,0.22
2873.00,0.21
2872.00,0.19
2871.00,0.17
2870.00,0.16
2869.00,0.14
2868.00,0.13
2867.00,0.12
2866.00,0.10
2865.00,0.10
2864.00,0.09
2863.00,0.09
2862.00,0.09
2861.00,0.09
2860.00,0.10
2859.00,0.11
2858.00,0.12
2857.00,0.14
2856.00,0.16
2855.00,0.18
2854.00,0.20
2853.00,0.23
2852.00,0.26
2851.00,0.29
2850.00,0.32
2849.00,0.35
2848.00,0.37
2847.00,0.38
2846.00,0.39
2845.00,0.40
2844.00,0.41
2843.00,0.41
2842.00,0.42
2841.00,0.42
2840.00,0.42
2839.00,0.42
2838.00,0.42
2837.00,0.43
2836.00,0.43
2835.00,0.43
2834.00,0.43
2833.00,0.44
2832.00,0.44
2831.00,0.44
2830.00,0.45
2829.00,0.45
2828.00,0.46
2827.00,0.46
2826.00,0.47
2825.00,0.47
2824.00,0.48
2823.00,0.49
2822.00,0.50
2821.00,0.51
2820.00,0.52
2819.00,0.53
2818.00,0.55
2817.00,0.56
2816.00,0.58
2815.00,0.60
2814.00,0.62
2813.00,0.64
2812.00,0.66
2811.00,0.68
2810.00,0.71
2809.00,0.74
2808.00,0.77
2807.00,0.80
2806.00,0.84
2805.00,0.88
2804.00,0.92
2803.00,0.96
2802.00,1.01
2801.00,1.05
2800.00,1.10
2799.00,1.15
2798.00,1.20
2797.00,1.24
2796.00,1.29
2795.00,1.35
2794.00,1.40
2793.00,1.47
2792.00,1.54
2791.00,1.61
2790.00,1.69
2789.00,1.77
2788.00,1.86
2787.00,1.95
2786.00,2.04
2785.00,2.13
2784.00,2.22
2783.00,2.31
2782.00,2.41
2781.00,2.50
2780.00,2.59
2779.00,2.68
2778.00,2.77
2777.00,2.86
2776.00,2.96
2775.00,3.06
2774.00,3.16
2773.00,3.26
2772.00,3.37
2771.00,3.47
2770.00,3.58
2769.00,3.69
2768.00,3.80
2767.00,3.91
2766.00,4.02
2765.00,4.14
2764.00,4.25
2763.00,4.37
2762.00,4.49
2761.00,4.62
2760.00,4.75
2759.00,4.90
2758.00,5.05
2757.00,5.21
2756.00,5.37
2755.00,5.54
2754.00,5.70
2753.00,5.85
2752.00,6.00
2751.00,6.12
2750.00,6.22
2749.00,6.30
2748.00,6.34
2747.00,6.35
2746.00,6.32
2745.00,6.25
2744.00,6.15
2743.00,6.01
2742.00,5.84
2741.00,5.63
2740.00,5.41
2739.00,5.17
2738.00,4.91
2737.00,4.65
2736.00,4.39
2735.00,4.13
2734.00,3.88
2733.00,3.64
2732.00,3.41
2731.00,3.20
2730.00,3.00
2729.00,2.80
2728.00,2.62
2727.00,2.46
2726.00,2.30
2725.00,2.16
2724.00,2.03
2723.00,1.90
2722.00,1.79
2721.00,1.69
2720.00,1.59
2719.00,1.50
2718.00,1.42
2717.00,1.35
2716.00,1.28
2715.00,1.22
2714.00,1.16
2713.00,1.11
2712.00,1.06
2711.00,1.01
2710.00,0.97
2709.00,0.93
2708.00,0.90
2707.00,0.86
2706.00,0.83
2705.00,0.80
2704.00,0.78
2703.00,0.75
2702.00,0.73
2701.00,0.70
2700.00,0.68
2699.00,0.66
2698.00,0.64
2697.00,0.62
2696.00,0.61
2695.00,0.59
2694.00,0.58
2693.00,0.56
2692.00,0.55
2691.00,0.54
2690.00,0.53
2689.00,0.52
2688.00,0.51
2687.00,0.50
2686.00,0.49
2685.00,0.48
2684.00,0.47
2683.00,0.46
2682.00,0.45
2681.00,0.44
2680.00,0.44
2679.00,0.43
2678.00,0.42
2677.00,0.42
2676.00,0.41
2675.00,0.41
2674.00,0.41
2673.00,0.40
2672.00,0.40
2671.00,0.40
2670.00,0.39
2669.00,0.39
2668.00,0.39
2667.00,0.39
2666.00,0.38
2665.00,0.38
2664.00,0.38
2663.00,0.38
2662.00,0.38
2661.00,0.37
2660.00,0.37
2659.00,0.37
2658.00,0.37
2657.00,0.37
2656.00,0.37
2655.00,0.37
2654.00,0.37
2653.00,0.36
2652.00,0.36
2651.00,0.36
2650.00,0.36
2649.00,0.36
2648.00,0.36
2647.00,0.36
2646.00,0.36
2645.00,0.37
2644.00,0.37
2643.00,0.37
2642.00,0.37
2641.00,0.37
2640.00,0.37
2639.00,0.37
2638.00,0.37
2637.00,0.38
2636.00,0.38
2635.00,0.38
2634.00,0.39
2633.00,0.39
2632.00,0.39
2631.00,0.40
2630.00,0.40
2629.00,0.40
2628.00,0.41
2627.00,0.42
2626.00,0.42
2625.00,0.43
2624.00,0.43
2623.00,0.44
2622.00,0.45
2621.00,0.45
2620.00,0.46
2619.00,0.47
2618.00,0.48
2617.00,0.49
2616.00,0.49
2615.00,0.50
2614.00,0.51
2613.00,0.52
2612.00,0.53
2611.00,0.55
2610.00,0.56
2609.00,0.58
2608.00,0.59
2607.00,0.61
2606.00,0.62
2605.00,0.64
2604.00,0.66
2603.00,0.68
2602.00,0.71
2601.00,0.74
2600.00,0.76
2599.00,0.79
2598.00,0.83
2597.00,0.86
2596.00,0.90
2595.00,0.94
2594.00,0.99
2593.00,1.03
2592.00,1.08
2591.00,1.13
2590.00,1.18
2589.00,1.23
2588.00,1.29
2587.00,1.34
2586.00,1.40
2585.00,1.46
2584.00,1.52
2583.00,1.57
2582.00,1.63
2581.00,1.70
2580.00,1.76
2579.00,1.82
2578.00,1.88
2577.00,1.95
2576.00,2.01
2575.00,2.07
2574.00,2.14
2573.00,2.20
2572.00,2.27
2571.00,2.33
2570.00,2.40
2569.00,2.47
2568.00,2.54
2567.00,2.61
2566.00,2.68
2565.00,2.76
2564.00,2.84
2563.00,2.92
2562.00,3.00
2561.00,3.09
2560.00,3.18
2559.00,3.27
2558.00,3.36
2557.00,3.46
2556.00,3.56
2555.00,3.66
2554.00,3.77
2553.00,3.87
2552.00,3.98
2551.00,4.09
2550.00,4.20
2549.00,4.31
2548.00,4.42
2547.00,4.54
2546.00,4.65
2545.00,4.77
2544.00,4.88
2543.00,5.00
2542.00,5.11
2541.00,5.22
2540.00,5.32
2539.00,5.41
2538.00,5.50
2537.00,5.57
2536.00,5.62
2535.00,5.65
2534.00,5.66
2533.00,5.65
2532.00,5.61
2531.00,5.55
2530.00,5.46
2529.00,5.34
2528.00,5.20
2527.00,5.04
2526.00,4.85
2525.00,4.66
2524.00,4.45
2523.00,4.24
2522.00,4.02
2521.00,3.81
2520.00,3.60
2519.00,3.39
2518.00,3.18
2517.00,2.99
2516.00,2.80
2515.00,2.62
2514.00,2.45
2513.00,2.29
2512.00,2.14
2511.00,2.00
2510.00,1.87
2509.00,1.75
2508.00,1.64
2507.00,1.54
2506.00,1.45
2505.00,1.37
2504.00,1.29
2503.00,1.22
2502.00,1.15
2501.00,1.09
2500.00,1.04
2499.00,0.99
2498.00,0.94
2497.00,0.89
2496.00,0.85
2495.00,0.82
2494.00,0.78
2493.00,0.75
2492.00,0.72
2491.00,0.69
2490.00,0.67
2489.00,0.64
2488.00,0.62
2487.00,0.60
2486.00,0.58
2485.00,0.56
2484.00,0.54
2483.00,0.53
2482.00,0.51
2481.00,0.50
2480.00,0.48
2479.00,0.47
2478.00,0.46
2477.00,0.45
2476.00,0.44
2475.00,0.43
2474.00,0.42
2473.00,0.41
2472.00,0.40
2471.00,0.39
2470.00,0.38
2469.00,0.37
2468.00,0.37
2467.00,0.36
2466.00,0.35
2465.00,0.35
2464.00,0.34
2463.00,0.34
2462.00,0.33
2461.00,0.33
2460.00,0.32
2459.00,0.32
2458.00,0.31
2457.00,0.31
2456.00,0.31
2455.00,0.30
2454.00,0.30
2453.00,0.29
2452.00,0.29
2451.00,0.29
2450.00,0.28
2449.00,0.28
2448.00,0.28
2447.00,0.28
2446.00,0.27
2445.00,0.27
2444.00,0.27
2443.00,0.27
2442.00,0.27
2441.00,0.27
2440.00,0.26
2439.00,0.26
2438.00,0.26
2437.00,0.26
2436.00,0.26
2435.00,0.26
2434.00,0.26
2433.00,0.26
2432.00,0.26
2431.00,0.26
2430.00,0.26
2429.00,0.26
2428.00,0.26
2427.00,0.26
2426.00,0.26
2425.00,0.26
2424.00,0.26
2423.00,0.26
2422.00,0.26
2421.00,0.26
2420.00,0.26
2419.00,0.26
2418.00,0.26
2417.00,0.26
2416.00,0.26
2415.00,0.26
2414.00,0.26
2413.00,0.26
2412.00,0.27
2411.00,0.27
2410.00,0.27
2409.00,0.28
2408.00,0.28
2407.00,0.28
2406.00,0.28
2405.00,0.29
2404.00,0.29
2403.00,0.29
2402.00,0.30
2401.00,0.30
2400.00,0.30
2399.00,0.31
2398.00,0.31
2397.00,0.32
2396.00,0.32
2395.00,0.33
2394.00,0.33
2393.00,0.34
2392.00,0.35
2391.00,0.35
2390.00,0.36
2389.00,0.37
2388.00,0.38
2387.00,0.44
2386.00,0.46
2385.00,0.49
2384.00,0.52
2383.00,0.56
2382.00,0.60
2381.00,0.64
2380.00,0.68
2379.00,0.73
2378.00,0.77
2377.00,0.82
2376.00,0.82
2375.00,0.54
2374.00,0.59
2373.00,0.61
2372.00,0.64
2371.00,0.67
2370.00,0.70
2369.00,0.74
2368.00,0.77
2367.00,0.81
2366.00,0.85
2365.00,0.89
2364.00,0.93
2363.00,0.98
2362.00,1.02
2361.00,1.06
2360.00,1.11
2359.00,1.16
2358.00,1.21
2357.00,1.27
2356.00,1.32
2355.00,1.37
2354.00,1.43
2353.00,1.48
2352.00,1.54
2351.00,1.60
2350.00,1.65
2349.00,1.71
2348.00,1.77
2347.00,1.84
2346.00,1.90
2345.00,1.97
2344.00,2.03
2343.00,2.10
2342.00,2.16
2341.00,2.22
2340.00,2.28
2339.00,2.34
2338.00,2.39
2337.00,2.46
2336.00,2.52
2335.00,2.60
2334.00,2.67
2333.00,2.74
2332.00,2.83
2331.00,2.89
2330.00,3.00
2329.00,3.04
2328.00,3.23
2327.00,4.39
2326.00,4.40
2325.00,4.52
2324.00,4.60
2323.00,4.67
2322.00,4.72
2321.00,4.75
2320.00,4.80
2319.00,4.85
2318.00,4.91
2317.00,4.96
2316.00,5.01
2315.00,5.05
2314.00,5.09
2313.00,5.11
2312.00,5.13
2311.00,5.11
2310.00,5.08
2309.00,5.01
2308.00,4.92
2307.00,4.80
2306.00,4.67
2305.00,4.50
2304.00,4.31
2303.00,4.11
2302.00,3.89
2301.00,3.67
2300.00,3.44
2299.00,3.22
2298.00,3.00
2297.00,2.80
2296.00,2.60
2295.00,2.41
2294.00,2.24
2293.00,2.08
2292.00,1.94
2291.00,1.80
2290.00,1.68
2289.00,1.56
2288.00,1.45
2287.00,1.35
2286.00,1.27
2285.00,1.19
2284.00,1.11
2283.00,1.05
2282.00,0.99
2281.00,0.93
2280.00,0.88
2279.00,0.83
2278.00,0.78
2277.00,0.74
2276.00,0.71
2275.00,0.67
2274.00,0.64
2273.00,0.61
2272.00,0.59
2271.00,0.56
2270.00,0.54
2269.00,0.52
2268.00,0.50
2267.00,0.48
2266.00,0.46
2265.00,0.45
2264.00,0.43
2263.00,0.42
2262.00,0.40
2261.00,0.39
2260.00,0.38
2259.00,0.37
2258.00,0.35
2257.00,0.34
2256.00,0.33
2255.00,0.32
2254.00,0.32
2253.00,0.31
2252.00,0.30
2251.00,0.30
2250.00,0.29
2249.00,0.28
2248.00,0.28
2247.00,0.27
2246.00,0.26
2245.00,0.26
2244.00,0.25
2243.00,0.25
2242.00,0.24
2241.00,0.24
2240.00,0.24
2239.00,0.23
2238.00,0.23
2237.00,0.23
2236.00,0.22
2235.00,0.22
2234.00,0.22
2233.00,0.21
2232.00,0.21
2231.00,0.21
2230.00,0.21
2229.00,0.20
2228.00,0.20
2227.00,0.20
2226.00,0.19
2225.00,0.19
2224.00,0.19
2223.00,0.19
2222.00,0.19
2221.00,0.19
2220.00,0.19
2219.00,0.18
2218.00,0.18
2217.00,0.18
2216.00,0.18
2215.00,0.18
2214.00,0.18
2213.00,0.18
2212.00,0.18
2211.00,0.18
2210.00,0.18
2209.00,0.18
2208.00,0.18
2207.00,0.17
2206.00,0.17
2205.00,0.17
2204.00,0.17
2203.00,0.17
2202.00,0.17
2201.00,0.17
2200.00,0.17
2199.00,0.17
2198.00,0.17
2197.00,0.18
2196.00,0.18
2195.00,0.18
2194.00,0.18
2193.00,0.18
2192.00,0.18
2191.00,0.18
2190.00,0.18
2189.00,0.18
2188.00,0.18
2187.00,0.18
2186.00,0.18
2185.00,0.18
2184.00,0.18
2183.00,0.19
2182.00,0.19
2181.00,0.19
2180.00,0.19
2179.00,0.19
2178.00,0.20
2177.00,0.20
2176.00,0.20
2175.00,0.20
2174.00,0.20
2173.00,0.21
2172.00,0.21
2171.00,0.21
2170.00,0.22
2169.00,0.22
2168.00,0.22
2167.00,0.23
2166.00,0.23
2165.00,0.23
2164.00,0.24
2163.00,0.24
2162.00,0.25
2161.00,0.26
2160.00,0.26
2159.00,0.27
2158.00,0.28
2157.00,0.28
2156.00,0.29
2155.00,0.30
2154.00,0.31
2153.00,0.32
2152.00,0.33
2151.00,0.34
2150.00,0.35
2149.00,0.36
2148.00,0.37
2147.00,0.39
2146.00,0.41
2145.00,0.42
2144.00,0.44
2143.00,0.46
2142.00,0.49
2141.00,0.51
2140.00,0.54
2139.00,0.56
2138.00,0.59
2137.00,0.62
2136.00,0.66
2135.00,0.69
2134.00,0.73
2133.00,0.77
2132.00,0.80
2131.00,0.85
2130.00,0.89
2129.00,0.93
2128.00,0.98
2127.00,1.03
2126.00,1.08
2125.00,1.13
2124.00,1.18
2123.00,1.23
2122.00,1.29
2121.00,1.35
2120.00,1.40
2119.00,1.46
2118.00,1.51
2117.00,1.57
2116.00,1.63
2115.00,1.69
2114.00,1.75
2113.00,1.82
2112.00,1.88
2111.00,1.94
2110.00,2.01
2109.00,2.07
2108.00,2.14
2107.00,2.21
2106.00,2.28
2105.00,2.35
2104.00,2.42
2103.00,2.50
2102.00,2.57
2101.00,2.64
2100.00,2.72
2099.00,2.79
2098.00,2.87
2097.00,2.95
2096.00,3.02
2095.00,3.10
2094.00,3.18
2093.00,3.25
2092.00,3.32
2091.00,3.39
2090.00,3.45
2089.00,3.51
2088.00,3.55
2087.00,3.57
2086.00,3.57
2085.00,3.55
2084.00,3.50
2083.00,3.42
2082.00,3.32
2081.00,3.19
2080.00,3.04
2079.00,2.88
2078.00,2.70
2077.00,2.52
2076.00,2.33
2075.00,2.16
2074.00,1.98
2073.00,1.82
2072.00,1.67
2071.00,1.54
2070.00,1.41
2069.00,1.30
2068.00,1.19
2067.00,1.10
2066.00,1.02
2065.00,0.95
2064.00,0.89
2063.00,0.84
2062.00,0.79
2061.00,0.74
2060.00,0.70
2059.00,0.67
2058.00,0.63
2057.00,0.60
2056.00,0.57
2055.00,0.54
2054.00,0.52
2053.00,0.49
2052.00,0.47
2051.00,0.45
2050.00,0.42
2049.00,0.40
2048.00,0.39
2047.00,0.37
2046.00,0.35
2045.00,0.34
2044.00,0.33
2043.00,0.31
2042.00,0.30
2041.00,0.29
2040.00,0.28
2039.00,0.27
2038.00,0.26
2037.00,0.25
2036.00,0.25
2035.00,0.24
2034.00,0.23
2033.00,0.22
2032.00,0.22
2031.00,0.21
2030.00,0.21
2029.00,0.20
2028.00,0.20
2027.00,0.19
2026.00,0.19
2025.00,0.19
2024.00,0.18
2023.00,0.18
2022.00,0.18
2021.00,0.17
2020.00,0.17
2019.00,0.16
2018.00,0.16
2017.00,0.16
2016.00,0.16
2015.00,0.15
2014.00,0.15
2013.00,0.15
2012.00,0.14
2011.00,0.14
2010.00,0.14
2009.00,0.14
2008.00,0.14
2007.00,0.14
2006.00,0.14
2005.00,0.13
2004.00,0.13
2003.00,0.13
2002.00,0.13
2001.00,0.13
2000.00,0.13
1999.00,0.13
1998.00,0.13
1997.00,0.12
1996.00,0.12
1995.00,0.12
1994.00,0.12
1993.00,0.12
1992.00,0.12
1991.00,0.12
1990.00,0.12
1989.00,0.12
1988.00,0.12
1987.00,0.12
1986.00,0.12
1985.00,0.12
1984.00,0.11
1983.00,0.11
1982.00,0.11
1981.00,0.11
1980.00,0.11
1979.00,0.11
1978.00,0.11
1977.00,0.11
1976.00,0.11
1975.00,0.11
1974.00,0.11
1973.00,0.11
1972.00,0.12
1971.00,0.12
1970.00,0.12
1969.00,0.12
1968.00,0.12
1967.00,0.12
1966.00,0.12
1965.00,0.12
1964.00,0.12
1963.00,0.12
1962.00,0.12
1961.00,0.12
1960.00,0.13
1959.00,0.13
1958.00,0.13
1957.00,0.13
1956.00,0.13
1955.00,0.13
1954.00,0.13
1953.00,0.14
1952.00,0.14
1951.00,0.14
1950.00,0.14
1949.00,0.14
1948.00,0.15
1947.00,0.15
1946.00,0.15
1945.00,0.15
1944.00,0.15
1943.00,0.16
1942.00,0.16
1941.00,0.17
1940.00,0.17
1939.00,0.17
1938.00,0.18
1937.00,0.18
1936.00,0.19
1935.00,0.19
1934.00,0.20
1933.00,0.20
1932.00,0.21
1931.00,0.22
1930.00,0.22
1929.00,0.23
1928.00,0.24
1927.00,0.25
1926.00,0.26
1925.00,0.27
1924.00,0.28
1923.00,0.30
1922.00,0.31
1921.00,0.33
1920.00,0.35
1919.00,0.37
1918.00,0.39
1917.00,0.41
1916.00,0.44
1915.00,0.47
1914.00,0.50
1913.00,0.53
1912.00,0.56
1911.00,0.59
1910.00,0.63
1909.00,0.67
1908.00,0.71
1907.00,0.76
1906.00,0.81
1905.00,0.85
1904.00,0.90
1903.00,0.95
1902.00,1.00
1901.00,1.05
1900.00,1.11
1899.00,1.16
1898.00,1.22
1897.00,1.27
1896.00,1.32
1895.00,1.39
1894.00,1.45
1893.00,1.52
1892.00,1.58
1891.00,1.64
1890.00,1.70
1889.00,1.77
1888.00,1.83
1887.00,1.89
1886.00,1.95
1885.00,2.01
1884.00,2.07
1883.00,2.12
1882.00,2.18
1881.00,2.23
1880.00,2.27
1879.00,2.32
1878.00,2.35
1877.00,2.37
1876.00,2.38
1875.00,2.38
1874.00,2.36
1873.00,2.34
1872.00,2.30
1871.00,2.24
1870.00,2.16
1869.00,2.07
1868.00,1.99
1867.00,1.91
1866.00,1.82
1865.00,1.72
1864.00,1.61
1863.00,1.49
1862.00,1.38
1861.00,1.27
1860.00,1.16
1859.00,1.06
1858.00,0.96
1857.00,0.88
1856.00,0.80
1855.00,0.73
1854.00,0.67
1853.00,0.61
1852.00,0.56
1851.00,0.51
1850.00,0.47
1849.00,0.44
1848.00,0.41
1847.00,0.38
1846.00,0.36
1845.00,0.34
1844.00,0.31
1843.00,0.29
1842.00,0.28
1841.00,0.26
1840.00,0.25
1839.00,0.23
1838.00,0.22
1837.00,0.21
1836.00,0.20
1835.00,0.19
1834.00,0.19
1833.00,0.18
1832.00,0.17
1831.00,0.17
1830.00,0.16
1829.00,0.16
1828.00,0.15
1827.00,0.15
1826.00,0.14
1825.00,0.14
1824.00,0.13
1823.00,0.13
1822.00,0.12
1821.00,0.12
1820.00,0.11
1819.00,0.11
1818.00,0.11
1817.00,0.11
1816.00,0.10
1815.00,0.10
1814.00,0.10
1813.00,0.10
1812.00,0.09
1811.00,0.09
1810.00,0.09
1809.00,0.09
1808.00,0.09
1807.00,0.09
1806.00,0.09
1805.00,0.08
1804.00,0.08
1803.00,0.08
1802.00,0.08
1801.00,0.08
1800.00,0.08
1799.00,0.08
1798.00,0.08
1797.00,0.08
1796.00,0.08
1795.00,0.08
1794.00,0.08
1793.00,0.08
1792.00,0.08
1791.00,0.08
1790.00,0.08
1789.00,0.08
1788.00,0.08
1787.00,0.08
1786.00,0.08
1785.00,0.08
1784.00,0.08
1783.00,0.08
1782.00,0.08
1781.00,0.08
1780.00,0.08
1779.00,0.08
1778.00,0.08
1777.00,0.08
1776.00,0.09
1775.00,0.09
1774.00,0.09
1773.00,0.09
1772.00,0.10
1771.00,0.10
1770.00,0.10
1769.00,0.10
1768.00,0.10
1767.00,0.10
1766.00,0.10
1765.00,0.10
1764.00,0.11
1763.00,0.11
1762.00,0.12
1761.00,0.13
1760.00,0.13
1759.00,0.14
1758.00,0.15
1757.00,0.16
1756.00,0.18
1755.00,0.19
1754.00,0.21
1753.00,0.22
1752.00,0.22
1751.00,0.23
1750.00,0.24
1749.00,0.25
1748.00,0.27
1747.00,0.28
1746.00,0.30
1745.00,0.30
1744.00,0.30
1743.00,0.30
1742.00,0.28
1741.00,0.25
1740.00,0.21
1739.00,0.18
1738.00,0.15
1737.00,0.12
1736.00,0.10
1735.00,0.08
1734.00,0.06
1733.00,0.05
1732.00,0.04
1731.00,0.03
1730.00,0.02
1729.00,0.02
1728.00,0.01
1727.00,0.01
1726.00,0.00
1725.00,0.00
1724.00,0.00
1723.00,0.00
1722.00,0.00
1721.00,0.00
1720.00,0.00
1719.00,0.00
1718.00,0.00
1717.00,0.00
1716.00,0.00
1715.00,0.00
1714.00,0.00
1713.00,0.00
1712.00,0.00
1711.00,0.00
1710.00,0.00
1709.00,0.00
1708.00,0.00
1707.00,0.00
1706.00,0.00
1705.00,0.00
1704.00,0.00
1703.00,0.00
1702.00,0.00
1701.00,0.00
1700.00,0.00
1699.00,0.01
1698.00,0.02
1697.00,0.02
1696.00,0.04
1695.00,0.05
1694.00,0.07
1693.00,0.10
1692.00,0.12
1691.00,0.14
1690.00,0.16
1689.00,0.17
1688.00,0.18
1687.00,0.17
1686.00,0.16
1685.00,0.14
1684.00,0.12
1683.00,0.11
1682.00,0.09
1681.00,0.08
1680.00,0.08
1679.00,0.08
1678.00,0.08
1677.00,0.08
1676.00,0.07
1675.00,0.07
1674.00,0.07
1673.00,0.07
1672.00,0.07
1671.00,0.07
1670.00,0.07
1669.00,0.07
1668.00,0.06
1667.00,0.06
1666.00,0.06
1665.00,0.06
1664.00,0.06
1663.00,0.06
1662.00,0.06
1661.00,0.06
1660.00,0.06
1659.00,0.07
1658.00,0.07
1657.00,0.07
1656.00,0.08
1655.00,0.08
1654.00,0.08
1653.00,0.08
1652.00,0.08
1651.00,0.08
1650.00,0.08
1649.00,0.08
1648.00,0.09
1647.00,0.09
1646.00,0.09
1645.00,0.09
1644.00,0.09
1643.00,0.09
1642.00,0.10
1641.00,0.10
1640.00,0.11
1639.00,0.11
1638.00,0.12
1637.00,0.13
1636.00,0.13
1635.00,0.13
1634.00,0.13
1633.00,0.13
1632.00,0.14
1631.00,0.14
1630.00,0.15
1629.00,0.16
1628.00,0.17
1627.00,0.18
1626.00,0.20
1625.00,0.22
1624.00,0.23
1623.00,0.25
1622.00,0.28
1621.00,0.30
1620.00,0.33
1619.00,0.37
1618.00,0.40
1617.00,0.43
1616.00,0.46
1615.00,0.50
1614.00,0.53
1613.00,0.56
1612.00,0.59
1611.00,0.63
1610.00,0.66
1609.00,0.70
1608.00,0.75
1607.00,0.80
1606.00,0.86
1605.00,0.91
1604.00,0.97
1603.00,1.02
1602.00,1.08
1601.00,1.14
1600.00,1.20
1599.00,1.25
1598.00,1.30
1597.00,1.34
1596.00,1.37
1595.00,1.40
1594.00,1.41
1593.00,1.40
1592.00,1.38
1591.00,1.35
1590.00,1.30
1589.00,1.25
1588.00,1.19
1587.00,1.13
1586.00,1.07
1585.00,1.00
1584.00,0.92
1583.00,0.85
1582.00,0.77
1581.00,0.70
1580.00,0.64
1579.00,0.59
1578.00,0.53
1577.00,0.48
1576.00,0.43
1575.00,0.39
1574.00,0.36
1573.00,0.34
1572.00,0.32
1571.00,0.30
1570.00,0.28
1569.00,0.25
1568.00,0.23
1567.00,0.21
1566.00,0.20
1565.00,0.19
1564.00,0.18
1563.00,0.18
1562.00,0.17
1561.00,0.17
1560.00,0.16
1559.00,0.15
1558.00,0.14
1557.00,0.13
1556.00,0.12
1555.00,0.11
1554.00,0.11
1553.00,0.10
1552.00,0.10
1551.00,0.10
1550.00,0.09
1549.00,0.09
1548.00,0.09
1547.00,0.08
1546.00,0.08
1545.00,0.08
1544.00,0.08
1543.00,0.08
1542.00,0.08
1541.00,0.08
1540.00,0.07
1539.00,0.07
1538.00,0.07
1537.00,0.07
1536.00,0.07
1535.00,0.06
1534.00,0.06
1533.00,0.06
1532.00,0.05
1531.00,0.05
1530.00,0.05
1529.00,0.05
1528.00,0.05
1527.00,0.05
1526.00,0.05
1525.00,0.05
1524.00,0.05
1523.00,0.05
1522.00,0.05
1521.00,0.05
1520.00,0.05
1519.00,0.05
1518.00,0.05
1517.00,0.05
1516.00,0.05
1515.00,0.04
1514.00,0.04
1513.00,0.04
1512.00,0.04
1511.00,0.04
1510.00,0.04
1509.00,0.04
1508.00,0.04
1507.00,0.04
1506.00,0.05
1505.00,0.05
1504.00,0.04
1503.00,0.04
1502.00,0.04
1501.00,0.04
1500.00,0.04
1499.00,0.05
1498.00,0.05
1497.00,0.05
1496.00,0.05
1495.00,0.05
1494.00,0.05
1493.00,0.05
1492.00,0.05
1491.00,0.05
1490.00,0.05
1489.00,0.05
1488.00,0.05
1487.00,0.05
1486.00,0.05
1485.00,0.05
1484.00,0.05
1483.00,0.05
1482.00,0.05
1481.00,0.05
1480.00,0.05
1479.00,0.06
1478.00,0.06
1477.00,0.06
1476.00,0.06
1475.00,0.06
1474.00,0.06
1473.00,0.06
1472.00,0.06
1471.00,0.06
1470.00,0.07
1469.00,0.07
1468.00,0.07
1467.00,0.07
1466.00,0.07
1465.00,0.07
1464.00,0.07
1463.00,0.07
1462.00,0.07
1461.00,0.07
1460.00,0.08
1459.00,0.08
1458.00,0.08
1457.00,0.07
1456.00,0.07
1455.00,0.06
1454.00,0.05
1453.00,0.04
1452.00,0.03
1451.00,0.02
1450.00,0.02
1449.00,0.02
1448.00,0.02
1447.00,0.02
1446.00,0.02
1445.00,0.03
1444.00,0.03
1443.00,0.03
1442.00,0.04
1441.00,0.04
1440.00,0.05
1439.00,0.05
1438.00,0.06
1437.00,0.06
1436.00,0.06
1435.00,0.06
1434.00,0.06
1433.00,0.05
1432.00,0.05
1431.00,0.05
1430.00,0.04
1429.00,0.04
1428.00,0.04
1427.00,0.04
1426.00,0.04
1425.00,0.04
1424.00,0.04
1423.00,0.04
1422.00,0.04
1421.00,0.04
1420.00,0.04
1419.00,0.04
1418.00,0.04
1417.00,0.04
1416.00,0.05
1415.00,0.05
1414.00,0.05
1413.00,0.06
1412.00,0.06
1411.00,0.07
1410.00,0.08
1409.00,0.08
1408.00,0.09
1407.00,0.10
1406.00,0.11
1405.00,0.12
1404.00,0.13
1403.00,0.15
1402.00,0.16
1401.00,0.18
1400.00,0.19
1399.00,0.21
1398.00,0.23
1397.00,0.25
1396.00,0.28
1395.00,0.31
1394.00,0.34
1393.00,0.37
1392.00,0.41
1391.00,0.44
1390.00,0.48
1389.00,0.51
1388.00,0.54
1387.00,0.57
1386.00,0.61
1385.00,0.65
1384.00,0.68
1383.00,0.70
1382.00,0.72
1381.00,0.73
1380.00,0.74
1379.00,0.73
1378.00,0.72
1377.00,0.70
1376.00,0.66
1375.00,0.61
1374.00,0.56
1373.00,0.51
1372.00,0.46
1371.00,0.41
1370.00,0.36
1369.00,0.32
1368.00,0.28
1367.00,0.25
1366.00,0.22
1365.00,0.20
1364.00,0.17
1363.00,0.15
1362.00,0.14
1361.00,0.12
1360.00,0.11
1359.00,0.10
1358.00,0.09
1357.00,0.08
1356.00,0.07
1355.00,0.07
1354.00,0.06
1353.00,0.05
1352.00,0.05
1351.00,0.04
1350.00,0.04
1349.00,0.04
1348.00,0.03
1347.00,0.04
1346.00,0.04
1345.00,0.04
1344.00,0.04
1343.00,0.04
1342.00,0.04
1341.00,0.03
1340.00,0.03
1339.00,0.03
1338.00,0.03
1337.00,0.04
1336.00,0.05
1335.00,0.05
1334.00,0.05
1333.00,0.06
1332.00,0.05
1331.00,0.05
1330.00,0.05
1329.00,0.05
1328.00,0.04
1327.00,0.04
1326.00,0.04
1325.00,0.03
1324.00,0.03
1323.00,0.03
1322.00,0.03
1321.00,0.03
1320.00,0.02
1319.00,0.02
1318.00,0.02
1317.00,0.02
1316.00,0.02
1315.00,0.01
1314.00,0.01
1313.00,0.01
1312.00,0.01
1311.00,0.01
1310.00,0.01
1309.00,0.02
1308.00,0.02
1307.00,0.03
1306.00,0.03
1305.00,0.04
1304.00,0.04
1303.00,0.05
1302.00,0.05
1301.00,0.05
1300.00,0.05
1299.00,0.04
1298.00,0.04
1297.00,0.04
1296.00,0.04
1295.00,0.04
1294.00,0.03
1293.00,0.03
1292.00,0.03
1291.00,0.03
1290.00,0.03
1289.00,0.03
1288.00,0.03
1287.00,0.03
1286.00,0.03
1285.00,0.03
1284.00,0.03
1283.00,0.03
1282.00,0.03
1281.00,0.03
1280.00,0.03
1279.00,0.03
1278.00,0.03
1277.00,0.02
1276.00,0.02
1275.00,0.02
1274.00,0.02
1273.00,0.02
1272.00,0.02
1271.00,0.02
1270.00,0.02
1269.00,0.02
1268.00,0.02
1267.00,0.02
1266.00,0.02
1265.00,0.02
1264.00,0.02
1263.00,0.02
1262.00,0.02
1261.00,0.02
1260.00,0.02
1259.00,0.02
1258.00,0.02
1257.00,0.02
1256.00,0.02
1255.00,0.02
1254.00,0.02
1253.00,0.02
1252.00,0.02
1251.00,0.02
1250.00,0.02
1249.00,0.02
1248.00,0.02
1247.00,0.02
1246.00,0.02
1245.00,0.02
1244.00,0.02
1243.00,0.02
1242.00,0.02
1241.00,0.02
1240.00,0.02
1239.00,0.02
1238.00,0.02
1237.00,0.02
1236.00,0.02
1235.00,0.02
1234.00,0.03
1233.00,0.03
1232.00,0.03
1231.00,0.03
1230.00,0.02
1229.00,0.02
1228.00,0.02
1227.00,0.02
1226.00,0.02
1225.00,0.01
1224.00,0.01
1223.00,0.01
1222.00,0.01
1221.00,0.01
1220.00,0.01
1219.00,0.01
1218.00,0.01
1217.00,0.01
1216.00,0.01
1215.00,0.01
1214.00,0.01
1213.00,0.01
1212.00,0.02
1211.00,0.02
1210.00,0.02
1209.00,0.02
1208.00,0.02
1207.00,0.02
1206.00,0.02
1205.00,0.02
1204.00,0.02
1203.00,0.02
1202.00,0.02
1201.00,0.03
1200.00,0.03
1199.00,0.03
1198.00,0.03
1197.00,0.03
1196.00,0.03
1195.00,0.03
1194.00,0.03
1193.00,0.03
1192.00,0.03
1191.00,0.03
1190.00,0.03
1189.00,0.03
1188.00,0.04
1187.00,0.04
1186.00,0.04
1185.00,0.04
1184.00,0.05
1183.00,0.05
1182.00,0.05
1181.00,0.06
1180.00,0.06
1179.00,0.06
1178.00,0.07
1177.00,0.07
1176.00,0.07
1175.00,0.08
1174.00,0.09
1173.00,0.10
1172.00,0.11
1171.00,0.12
1170.00,0.13
1169.00,0.14
1168.00,0.15
1167.00,0.16
1166.00,0.17
1165.00,0.19
1164.00,0.20
1163.00,0.21
1162.00,0.22
1161.00,0.24
1160.00,0.25
1159.00,0.26
1158.00,0.27
1157.00,0.28
1156.00,0.29
1155.00,0.30
1154.00,0.30
1153.00,0.31
1152.00,0.31
1151.00,0.30
1150.00,0.29
1149.00,0.28
1148.00,0.26
1147.00,0.24
1146.00,0.22
1145.00,0.19
1144.00,0.17
1143.00,0.15
1142.00,0.13
1141.00,0.11
1140.00,0.09
1139.00,0.08
1138.00,0.07
1137.00,0.06
1136.00,0.06
1135.00,0.05
1134.00,0.04
1133.00,0.03
1132.00,0.03
1131.00,0.03
1130.00,0.03
1129.00,0.02
1128.00,0.02
1127.00,0.02
1126.00,0.02
1125.00,0.02
1124.00,0.02
1123.00,0.01
1122.00,0.01
1121.00,0.00
1120.00,0.00
1119.00,0.00
1118.00,0.01
1117.00,0.01
1116.00,0.01
1115.00,0.02
1114.00,0.02
1113.00,0.03
1112.00,0.03
1111.00,0.04
1110.00,0.04
1109.00,0.05
1108.00,0.05
1107.00,0.05
1106.00,0.04
1105.00,0.04
1104.00,0.04
1103.00,0.03
1102.00,0.03
1101.00,0.03
1100.00,0.02
1099.00,0.02
1098.00,0.02
1097.00,0.02
1096.00,0.02
1095.00,0.02
1094.00,0.02
1093.00,0.02
1092.00,0.02
1091.00,0.02
1090.00,0.02
1089.00,0.02
1088.00,0.02
1087.00,0.02
1086.00,0.02
1085.00,0.02
1084.00,0.01
1083.00,0.01
1082.00,0.01
1081.00,0.01
1080.00,0.01
1079.00,0.01
1078.00,0.01
1077.00,0.01
1076.00,0.01
1075.00,0.01
1074.00,0.01
1073.00,0.01
1072.00,0.01
1071.00,0.01
1070.00,0.01
1069.00,0.01
1068.00,0.01
1067.00,0.01
1066.00,0.00
1065.00,0.00
1064.00,0.00
1063.00,0.00
1062.00,0.00
1061.00,0.01
1060.00,0.01
1059.00,0.01
1058.00,0.01
1057.00,0.01
1056.00,0.01
1055.00,0.01
1054.00,0.01
1053.00,0.01
1052.00,0.01
1051.00,0.01
1050.00,0.01
1049.00,0.01
1048.00,0.01
1047.00,0.00
1046.00,0.00
1045.00,0.01
1044.00,0.01
1043.00,0.01
1042.00,0.01
1041.00,0.01
1040.00,0.01
1039.00,0.01
1038.00,0.01
1037.00,0.01
1036.00,0.01
1035.00,0.00
1034.00,0.00
1033.00,0.00
1032.00,0.00
1031.00,0.00
1030.00,0.00
1029.00,0.00
1028.00,0.00
1027.00,0.00
1026.00,0.00
1025.00,0.00
1024.00,0.01
1023.00,0.01
1022.00,0.01
1021.00,0.01
1020.00,0.01
1019.00,0.01
1018.00,0.01
1017.00,0.01
1016.00,0.01
1015.00,0.01
1014.00,0.01
1013.00,0.01
1012.00,0.01
1011.00,0.01
1010.00,0.01
1009.00,0.00
1008.00,0.00
1007.00,0.00
1006.00,0.01
1005.00,0.01
1004.00,0.01
1003.00,0.01
1002.00,0.01
1001.00,0.01
1000.00,0.01
999.00,0.00
998.00,0.00
997.00,0.00
996.00,0.00
995.00,0.00
994.00,0.00
993.00,0.00
992.00,0.00
991.00,0.00
990.00,0.01
989.00,0.01
988.00,0.01
987.00,0.00
986.00,0.00
985.00,0.00
984.00,0.00
983.00,0.00
982.00,0.00
981.00,0.01
980.00,0.01
979.00,0.01
978.00,0.01
977.00,0.00
976.00,0.00
975.00,0.01
974.00,0.01
973.00,0.01
972.00,0.01
971.00,0.01
970.00,0.01
969.00,0.00
968.00,0.00
967.00,0.00
966.00,0.00
965.00,0.00
964.00,0.00
963.00,0.00
962.00,0.01
961.00,0.01
960.00,0.01
959.00,0.01
958.00,0.01
957.00,0.01
956.00,0.01
955.00,0.01
954.00,0.01
953.00,0.01
952.00,0.01
951.00,0.01
950.00,0.01
949.00,0.01
948.00,0.01
947.00,0.01
946.00,0.01
945.00,0.01
944.00,0.01
943.00,0.01
942.00,0.01
941.00,0.01
940.00,0.01
939.00,0.01
938.00,0.01
937.00,0.01
936.00,0.01
935.00,0.01
934.00,0.01
933.00,0.01
932.00,0.00
931.00,0.00
930.00,0.00
929.00,0.01
928.00,0.01
927.00,0.01
926.00,0.01
925.00,0.01
924.00,0.01
923.00,0.01
922.00,0.01
921.00,0.01
920.00,0.00
919.00,0.00
918.00,0.00
917.00,0.01
916.00,0.01
915.00,0.01
914.00,0.01
913.00,0.01
912.00,0.01
911.00,0.01
910.00,0.01
909.00,0.00
908.00,0.00
907.00,0.01
906.00,0.01
905.00,0.01
904.00,0.01
903.00,0.01
902.00,0.01
901.00,0.01
900.00,0.01
899.00,0.01
898.00,0.00
897.00,0.00
896.00,0.00
895.00,0.00
894.00,0.00
893.00,0.00
892.00,0.00
891.00,0.00
890.00,0.00
889.00,0.00
888.00,0.00
887.00,0.00
886.00,0.00
885.00,0.00
884.00,0.00
883.00,0.00
882.00,0.00
881.00,0.00
880.00,0.00
879.00,0.00
878.00,0.00
877.00,0.00
876.00,0.00
875.00,0.00
874.00,0.00
873.00,0.00
872.00,0.01
871.00,0.01
870.00,0.01
869.00,0.01
868.00,0.00
867.00,0.00
866.00,0.00
865.00,0.00
864.00,0.00
863.00,0.00
862.00,0.00
861.00,0.00
860.00,0.00
859.00,0.00
858.00,0.00
857.00,0.01
856.00,0.01
855.00,0.00
854.00,0.00
853.00,0.00
852.00,0.00
851.00,0.00
850.00,0.00
849.00,0.00
848.00,0.01
847.00,0.00
846.00,0.00
845.00,0.00
844.00,0.00
843.00,0.00
842.00,0.00
841.00,0.00
840.00,0.01
839.00,0.01
838.00,0.01
837.00,0.01
836.00,0.01
835.00,0.01
834.00,0.01
833.00,0.01
832.00,0.01
831.00,0.01
830.00,0.01
829.00,0.01
828.00,0.01
827.00,0.01
826.00,0.00
825.00,0.00
824.00,0.01
823.00,0.01
822.00,0.01
821.00,0.01
820.00,0.01
819.00,0.01
818.00,0.01
817.00,0.01
816.00,0.01
815.00,0.01
814.00,0.01
813.00,0.02
812.00,0.02
811.00,0.01
810.00,0.01
809.00,0.01
808.00,0.01
807.00,0.01
806.00,0.01
805.00,0.01
804.00,0.01
803.00,0.01
802.00,0.01
801.00,0.01
800.00,0.01
799.00,0.01
798.00,0.01
797.00,0.01
796.00,0.00
795.00,0.00
794.00,0.00
793.00,0.00
792.00,0.00
791.00,0.00
790.00,0.00
789.00,0.01
788.00,0.01
787.00,0.01
786.00,0.01
785.00,0.01
784.00,0.01
783.00,0.01
782.00,0.01
781.00,0.01
780.00,0.01
779.00,0.01
778.00,0.01
777.00,0.01
776.00,0.01
775.00,0.01
774.00,0.00
773.00,0.00
772.00,0.00
771.00,0.00
770.00,0.01
769.00,0.01
768.00,0.01
767.00,0.01
766.00,0.01
765.00,0.01
764.00,0.01
763.00,0.01
762.00,0.01
761.00,0.00
760.00,0.01
759.00,0.01
758.00,0.01
757.00,0.01
756.00,0.01
755.00,0.00
754.00,0.00
753.00,0.00
752.00,0.00
751.00,0.01
750.00,0.01
749.00,0.01
748.00,0.01
747.00,0.01
746.00,0.01
745.00,0.01
744.00,0.01
743.00,0.01
742.00,0.00
741.00,0.00
740.00,0.00
739.00,0.00
738.00,0.00
737.00,0.00
736.00,0.00
735.00,0.01
734.00,0.01
733.00,0.01
732.00,0.01
731.00,0.00
730.00,0.00
729.00,0.01
728.00,0.01
727.00,0.01
726.00,0.01
725.00,0.01
724.00,0.01
723.00,0.01
722.00,0.01
721.00,0.01
720.00,0.01
719.00,0.01
718.00,0.01
717.00,0.00
716.00,0.01
715.00,0.01
714.00,0.01
713.00,0.00
712.00,0.00
711.00,0.00
710.00,0.01
709.00,0.01
708.00,0.01
707.00,0.01
706.00,0.01
705.00,0.00
704.00,0.00
703.00,0.00
702.00,0.01
701.00,0.01
700.00,0.01
699.00,0.01
698.00,0.00
697.00,0.00
696.00,0.01
695.00,0.01
694.00,0.01
693.00,0.00
692.00,0.01
691.00,0.01
690.00,0.01
689.00,0.01
688.00,0.01
687.00,0.01
686.00,0.00
685.00,0.00
684.00,0.00
683.00,0.00
682.00,0.00
681.00,0.00
680.00,0.00
679.00,0.01
678.00,0.01
677.00,0.01
676.00,0.01
675.00,0.01
674.00,0.01
673.00,0.01
672.00,0.01
671.00,0.01
670.00,0.01
669.00,0.01
668.00,0.01
667.00,0.00
666.00,0.00
665.00,0.01
664.00,0.01
663.00,0.01
662.00,0.01
661.00,0.01
660.00,0.01
659.00,0.00
658.00,0.00
657.00,0.01
656.00,0.01
655.00,0.01
654.00,0.02
653.00,0.02
652.00,0.02
651.00,0.01
650.00,0.00
649.00,0.00
648.00,0.01
647.00,0.01
646.00,0.00
645.00,0.00
644.00,0.00
643.00,0.01
642.00,0.01
641.00,0.01
640.00,0.01
639.00,0.01
638.00,0.01
637.00,0.01
636.00,0.01
635.00,0.01
634.00,0.00
633.00,0.01
632.00,0.01
631.00,0.01
630.00,0.01
629.00,0.01
628.00,0.00
627.00,0.00
626.00,0.00
625.00,0.01
624.00,0.01
623.00,0.01
622.00,0.01
621.00,0.00
620.00,0.00
619.00,0.01
618.00,0.00
617.00,0.00
616.00,0.01
615.00,0.01
614.00,0.01
613.00,0.00
612.00,0.00
611.00,0.01
610.00,0.02
609.00,0.02
608.00,0.02
607.00,0.01
606.00,0.01
605.00,0.02
604.00,0.02
603.00,0.02
602.00,0.02
601.00,0.01
600.00,0.01
599.00,0.02
598.00,0.02
597.00,0.02
596.00,0.03
595.00,0.03
594.00,0.03
593.00,0.03
592.00,0.02
591.00,0.01
590.00,0.02
589.00,0.02
588.00,0.02
587.00,0.02
586.00,0.02
585.00,0.02
584.00,0.02
583.00,0.01
582.00,0.01
581.00,0.01
580.00,0.01
579.00,0.01
578.00,0.01
577.00,0.01
576.00,0.00
575.00,0.01
574.00,0.01
573.00,0.01
572.00,0.02
571.00,0.02
570.00,0.03
569.00,0.02
568.00,0.02
567.00,0.02
566.00,0.02
565.00,0.02
564.00,0.02
563.00,0.02
562.00,0.01
561.00,0.01
560.00,0.01
559.00,0.01
558.00,0.01
557.00,0.02
556.00,0.02
555.00,0.02
554.00,0.02
553.00,0.01
552.00,0.01
551.00,0.01
550.00,0.00
549.00,0.00
548.00,0.01
547.00,0.01
546.00,0.01
545.00,0.01
544.00,0.01
543.00,0.00
542.00,0.01
541.00,0.02
540.00,0.03
539.00,0.03
538.00,0.03
537.00,0.02
536.00,0.02
535.00,0.03
534.00,0.03
533.00,0.03
532.00,0.03
531.00,0.02
530.00,0.02
529.00,0.02
528.00,0.01
527.00,0.01
526.00,0.02
525.00,0.03
524.00,0.04
523.00,0.04
522.00,0.04
521.00,0.04
520.00,0.05
519.00,0.04
518.00,0.03
517.00,0.02
516.00,0.01
515.00,0.02
514.00,0.03
513.00,0.03
512.00,0.03
511.00,0.03
510.00,0.03
509.00,0.03
508.00,0.03
507.00,0.03
506.00,0.03
505.00,0.03
504.00,0.03
503.00,0.03
502.00,0.03
501.00,0.03
500.00,0.02
499.00,0.03
498.00,0.03
497.00,0.04
496.00,0.04
495.00,0.03
494.00,0.03
493.00,0.03
492.00,0.02
491.00,0.01
490.00,0.02
489.00,0.03
488.00,0.03
487.00,0.04
486.00,0.04
485.00,0.04
484.00,0.04
483.00,0.03
482.00,0.01
481.00,0.01
480.00,0.01
479.00,0.01
478.00,0.02
477.00,0.03
476.00,0.05
475.00,0.06
474.00,0.07
473.00,0.08
472.00,0.09
471.00,0.07
470.00,0.04
469.00,0.01
468.00,0.02
467.00,0.04
466.00,0.05
465.00,0.05
464.00,0.05
463.00,0.05
462.00,0.04
461.00,0.02
460.00,0.01
459.00,0.01
458.00,0.01
457.00,0.03
456.00,0.04
455.00,0.05
454.00,0.05
453.00,0.04
452.00,0.03
451.00,0.02
450.00,0.04
449.00,0.06
448.00,0.07
447.00,0.05
446.00,0.03
445.00,0.01
444.00,0.01
443.00,0.02
442.00,0.02
441.00,0.01
440.00,0.02
439.00,0.06
438.00,0.10
437.00,0.11
436.00,0.11
435.00,0.09
434.00,0.07
433.00,0.04
432.00,0.01
431.00,0.02
430.00,0.02
429.00,0.01
428.00,0.02
427.00,0.02
426.00,0.02
425.00,0.03
424.00,0.04
423.00,0.06
422.00,0.07
421.00,0.05
420.00,0.05
419.00,0.10
418.00,0.12
417.00,0.09
416.00,0.05
415.00,0.03
414.00,0.04
413.00,0.05
412.00,0.05
411.00,0.03
410.00,0.02
409.00,0.02
408.00,0.01
407.00,0.01
406.00,0.04
405.00,0.07
404.00,0.09
403.00,0.10
402.00,0.08
401.00,0.12
400.00,0.25
