,cavity_after2,
Wavenumbers [1/cm],Transmittance %,
7000.000,11.76,
6999.000,11.83,
6998.000,11.9,
6997.000,11.97,
6996.000,12.03,
6995.000,12.1,
6994.000,12.18,
6993.000,12.25,
6992.000,12.31,
6991.000,12.38,
6990.000,12.46,
6989.000,12.54,
6988.000,12.62,
6987.000,12.7,
6986.000,12.77,
6985.000,12.85,
6984.000,12.92,
6983.000,12.99,
6982.000,13.06,
6981.000,13.13,
6980.000,13.2,
6979.000,13.27,
6978.000,13.34,
6977.000,13.41,
6976.000,13.47,
6975.000,13.55,
6974.000,13.62,
6973.000,13.69,
6972.000,13.76,
6971.000,13.83,
6970.000,13.91,
6969.000,13.99,
6968.000,14.06,
6967.000,14.13,
6966.000,14.2,
6965.000,14.26,
6964.000,14.32,
6963.000,14.39,
6962.000,14.45,
6961.000,14.51,
6960.000,14.58,
6959.000,14.65,
6958.000,14.73,
6957.000,14.8,
6956.000,14.87,
6955.000,14.93,
6954.000,14.98,
6953.000,15.04,
6952.000,15.09,
6951.000,15.15,
6950.000,15.21,
6949.000,15.26,
6948.000,15.31,
6947.000,15.36,
6946.000,15.41,
6945.000,15.46,
6944.000,15.5,
6943.000,15.53,
6942.000,15.56,
6941.000,15.58,
6940.000,15.59,
6939.000,15.62,
6938.000,15.64,
6937.000,15.66,
6936.000,15.68,
6935.000,15.7,
6934.000,15.71,
6933.000,15.72,
6932.000,15.71,
6931.000,15.7,
6930.000,15.69,
6929.000,15.68,
6928.000,15.66,
6927.000,15.64,
6926.000,15.59,
6925.000,15.54,
6924.000,15.49,
6923.000,15.45,
6922.000,15.39,
6921.000,15.34,
6920.000,15.27,
6919.000,15.21,
6918.000,15.14,
6917.000,15.05,
6916.000,14.96,
6915.000,14.86,
6914.000,14.77,
6913.000,14.67,
6912.000,14.57,
6911.000,14.46,
6910.000,14.35,
6909.000,14.23,
6908.000,14.11,
6907.000,13.98,
6906.000,13.85,
6905.000,13.73,
6904.000,13.6,
6903.000,13.46,
6902.000,13.33,
6901.000,13.19,
6900.000,13.04,
6899.000,12.9,
6898.000,12.76,
6897.000,12.62,
6896.000,12.47,
6895.000,12.33,
6894.000,12.19,
6893.000,12.05,
6892.000,11.91,
6891.000,11.76,
6890.000,11.61,
6889.000,11.46,
6888.000,11.31,
6887.000,11.16,
6886.000,11.02,
6885.000,10.89,
6884.000,10.76,
6883.000,10.64,
6882.000,10.51,
6881.000,10.38,
6880.000,10.25,
6879.000,10.13,
6878.000,10.01,
6877.000,9.9,
6876.000,9.8,
6875.000,9.71,
6874.000,9.62,
6873.000,9.52,
6872.000,9.42,
6871.000,9.31,
6870.000,9.19,
6869.000,9.09,
6868.000,8.99,
6867.000,8.89,
6866.000,8.8,
6865.000,8.72,
6864.000,8.65,
6863.000,8.57,
6862.000,8.5,
6861.000,8.43,
6860.000,8.37,
6859.000,8.31,
6858.000,8.26,
6857.000,8.2,
6856.000,8.14,
6855.000,8.08,
6854.000,8.03,
6853.000,7.97,
6852.000,7.92,
6851.000,7.87,
6850.000,7.82,
6849.000,7.78,
6848.000,7.74,
6847.000,7.71,
6846.000,7.68,
6845.000,7.65,
6844.000,7.62,
6843.000,7.6,
6842.000,7.58,
6841.000,7.56,
6840.000,7.54,
6839.000,7.52,
6838.000,7.51,
6837.000,7.5,
6836.000,7.49,
6835.000,7.48,
6834.000,7.47,
6833.000,7.46,
6832.000,7.46,
6831.000,7.47,
6830.000,7.47,
6829.000,7.48,
6828.000,7.49,
6827.000,7.49,
6826.000,7.49,
6825.000,7.5,
6824.000,7.51,
6823.000,7.52,
6822.000,7.53,
6821.000,7.55,
6820.000,7.57,
6819.000,7.59,
6818.000,7.61,
6817.000,7.63,
6816.000,7.65,
6815.000,7.67,
6814.000,7.7,
6813.000,7.73,
6812.000,7.77,
6811.000,7.8,
6810.000,7.84,
6809.000,7.86,
6808.000,7.89,
6807.000,7.92,
6806.000,7.95,
6805.000,7.99,
6804.000,8.02,
6803.000,8.06,
6802.000,8.1,
6801.000,8.14,
6800.000,8.19,
6799.000,8.23,
6798.000,8.27,
6797.000,8.32,
6796.000,8.36,
6795.000,8.41,
6794.000,8.45,
6793.000,8.5,
6792.000,8.54,
6791.000,8.59,
6790.000,8.64,
6789.000,8.69,
6788.000,8.74,
6787.000,8.79,
6786.000,8.84,
6785.000,8.9,
6784.000,8.96,
6783.000,9.01,
6782.000,9.08,
6781.000,9.13,
6780.000,9.19,
6779.000,9.24,
6778.000,9.29,
6777.000,9.35,
6776.000,9.41,
6775.000,9.47,
6774.000,9.54,
6773.000,9.6,
6772.000,9.66,
6771.000,9.72,
6770.000,9.78,
6769.000,9.83,
6768.000,9.89,
6767.000,9.96,
6766.000,10.03,
6765.000,10.1,
6764.000,10.17,
6763.000,10.24,
6762.000,10.31,
6761.000,10.37,
6760.000,10.43,
6759.000,10.49,
6758.000,10.55,
6757.000,10.62,
6756.000,10.68,
6755.000,10.75,
6754.000,10.81,
6753.000,10.88,
6752.000,10.94,
6751.000,11.01,
6750.000,11.08,
6749.000,11.15,
6748.000,11.23,
6747.000,11.31,
6746.000,11.39,
6745.000,11.48,
6744.000,11.57,
6743.000,11.65,
6742.000,11.73,
6741.000,11.8,
6740.000,11.87,
6739.000,11.94,
6738.000,12,
6737.000,12.06,
6736.000,12.13,
6735.000,12.21,
6734.000,12.3,
6733.000,12.38,
6732.000,12.46,
6731.000,12.53,
6730.000,12.61,
6729.000,12.68,
6728.000,12.76,
6727.000,12.83,
6726.000,12.91,
6725.000,13,
6724.000,13.08,
6723.000,13.16,
6722.000,13.23,
6721.000,13.29,
6720.000,13.35,
6719.000,13.42,
6718.000,13.48,
6717.000,13.54,
6716.000,13.6,
6715.000,13.67,
6714.000,13.73,
6713.000,13.78,
6712.000,13.83,
6711.000,13.88,
6710.000,13.92,
6709.000,13.97,
6708.000,14.01,
6707.000,14.05,
6706.000,14.09,
6705.000,14.12,
6704.000,14.15,
6703.000,14.17,
6702.000,14.19,
6701.000,14.2,
6700.000,14.2,
6699.000,14.19,
6698.000,14.19,
6697.000,14.19,
6696.000,14.17,
6695.000,14.16,
6694.000,14.14,
6693.000,14.12,
6692.000,14.09,
6691.000,14.05,
6690.000,14.01,
6689.000,13.96,
6688.000,13.9,
6687.000,13.84,
6686.000,13.77,
6685.000,13.7,
6684.000,13.61,
6683.000,13.53,
6682.000,13.44,
6681.000,13.35,
6680.000,13.25,
6679.000,13.16,
6678.000,13.06,
6677.000,12.95,
6676.000,12.84,
6675.000,12.74,
6674.000,12.63,
6673.000,12.51,
6672.000,12.4,
6671.000,12.28,
6670.000,12.16,
6669.000,12.03,
6668.000,11.9,
6667.000,11.77,
6666.000,11.63,
6665.000,11.5,
6664.000,11.37,
6663.000,11.24,
6662.000,11.11,
6661.000,10.98,
6660.000,10.85,
6659.000,10.72,
6658.000,10.6,
6657.000,10.47,
6656.000,10.35,
6655.000,10.23,
6654.000,10.11,
6653.000,10,
6652.000,9.89,
6651.000,9.78,
6650.000,9.67,
6649.000,9.56,
6648.000,9.45,
6647.000,9.35,
6646.000,9.26,
6645.000,9.16,
6644.000,9.06,
6643.000,8.96,
6642.000,8.87,
6641.000,8.77,
6640.000,8.68,
6639.000,8.59,
6638.000,8.51,
6637.000,8.43,
6636.000,8.36,
6635.000,8.29,
6634.000,8.22,
6633.000,8.15,
6632.000,8.09,
6631.000,8.03,
6630.000,7.97,
6629.000,7.92,
6628.000,7.87,
6627.000,7.82,
6626.000,7.77,
6625.000,7.72,
6624.000,7.68,
6623.000,7.64,
6622.000,7.61,
6621.000,7.58,
6620.000,7.55,
6619.000,7.52,
6618.000,7.5,
6617.000,7.47,
6616.000,7.44,
6615.000,7.42,
6614.000,7.4,
6613.000,7.39,
6612.000,7.38,
6611.000,7.38,
6610.000,7.37,
6609.000,7.37,
6608.000,7.36,
6607.000,7.36,
6606.000,7.36,
6605.000,7.37,
6604.000,7.38,
6603.000,7.39,
6602.000,7.4,
6601.000,7.42,
6600.000,7.43,
6599.000,7.44,
6598.000,7.46,
6597.000,7.48,
6596.000,7.5,
6595.000,7.52,
6594.000,7.54,
6593.000,7.56,
6592.000,7.58,
6591.000,7.61,
6590.000,7.64,
6589.000,7.67,
6588.000,7.71,
6587.000,7.74,
6586.000,7.79,
6585.000,7.83,
6584.000,7.87,
6583.000,7.91,
6582.000,7.95,
6581.000,7.99,
6580.000,8.03,
6579.000,8.07,
6578.000,8.11,
6577.000,8.15,
6576.000,8.19,
6575.000,8.24,
6574.000,8.28,
6573.000,8.33,
6572.000,8.38,
6571.000,8.44,
6570.000,8.5,
6569.000,8.55,
6568.000,8.61,
6567.000,8.67,
6566.000,8.72,
6565.000,8.78,
6564.000,8.84,
6563.000,8.9,
6562.000,8.96,
6561.000,9.01,
6560.000,9.07,
6559.000,9.13,
6558.000,9.18,
6557.000,9.23,
6556.000,9.29,
6555.000,9.36,
6554.000,9.43,
6553.000,9.51,
6552.000,9.57,
6551.000,9.64,
6550.000,9.7,
6549.000,9.77,
6548.000,9.83,
6547.000,9.9,
6546.000,9.97,
6545.000,10.03,
6544.000,10.11,
6543.000,10.18,
6542.000,10.25,
6541.000,10.32,
6540.000,10.39,
6539.000,10.47,
6538.000,10.54,
6537.000,10.62,
6536.000,10.68,
6535.000,10.75,
6534.000,10.82,
6533.000,10.89,
6532.000,10.96,
6531.000,11.05,
6530.000,11.13,
6529.000,11.21,
6528.000,11.29,
6527.000,11.36,
6526.000,11.44,
6525.000,11.51,
6524.000,11.58,
6523.000,11.66,
6522.000,11.74,
6521.000,11.83,
6520.000,11.91,
6519.000,11.99,
6518.000,12.07,
6517.000,12.15,
6516.000,12.22,
6515.000,12.3,
6514.000,12.38,
6513.000,12.46,
6512.000,12.54,
6511.000,12.62,
6510.000,12.7,
6509.000,12.79,
6508.000,12.87,
6507.000,12.95,
6506.000,13.03,
6505.000,13.11,
6504.000,13.19,
6503.000,13.26,
6502.000,13.34,
6501.000,13.42,
6500.000,13.49,
6499.000,13.57,
6498.000,13.65,
6497.000,13.73,
6496.000,13.8,
6495.000,13.88,
6494.000,13.95,
6493.000,14.02,
6492.000,14.09,
6491.000,14.16,
6490.000,14.22,
6489.000,14.29,
6488.000,14.35,
6487.000,14.42,
6486.000,14.49,
6485.000,14.55,
6484.000,14.61,
6483.000,14.68,
6482.000,14.73,
6481.000,14.78,
6480.000,14.82,
6479.000,14.87,
6478.000,14.92,
6477.000,14.96,
6476.000,15.01,
6475.000,15.05,
6474.000,15.07,
6473.000,15.09,
6472.000,15.1,
6471.000,15.11,
6470.000,15.12,
6469.000,15.12,
6468.000,15.12,
6467.000,15.11,
6466.000,15.1,
6465.000,15.08,
6464.000,15.05,
6463.000,15.02,
6462.000,14.98,
6461.000,14.93,
6460.000,14.89,
6459.000,14.84,
6458.000,14.78,
6457.000,14.71,
6456.000,14.63,
6455.000,14.54,
6454.000,14.45,
6453.000,14.35,
6452.000,14.24,
6451.000,14.14,
6450.000,14.03,
6449.000,13.92,
6448.000,13.81,
6447.000,13.68,
6446.000,13.56,
6445.000,13.43,
6444.000,13.29,
6443.000,13.16,
6442.000,13.02,
6441.000,12.89,
6440.000,12.75,
6439.000,12.61,
6438.000,12.46,
6437.000,12.31,
6436.000,12.16,
6435.000,12.02,
6434.000,11.87,
6433.000,11.72,
6432.000,11.57,
6431.000,11.41,
6430.000,11.26,
6429.000,11.11,
6428.000,10.95,
6427.000,10.8,
6426.000,10.66,
6425.000,10.52,
6424.000,10.38,
6423.000,10.24,
6422.000,10.1,
6421.000,9.97,
6420.000,9.84,
6419.000,9.71,
6418.000,9.59,
6417.000,9.47,
6416.000,9.36,
6415.000,9.24,
6414.000,9.13,
6413.000,9.01,
6412.000,8.9,
6411.000,8.79,
6410.000,8.68,
6409.000,8.57,
6408.000,8.46,
6407.000,8.36,
6406.000,8.27,
6405.000,8.18,
6404.000,8.1,
6403.000,8.02,
6402.000,7.94,
6401.000,7.87,
6400.000,7.8,
6399.000,7.72,
6398.000,7.65,
6397.000,7.57,
6396.000,7.5,
6395.000,7.44,
6394.000,7.38,
6393.000,7.32,
6392.000,7.27,
6391.000,7.23,
6390.000,7.19,
6389.000,7.16,
6388.000,7.12,
6387.000,7.09,
6386.000,7.05,
6385.000,7.02,
6384.000,6.99,
6383.000,6.95,
6382.000,6.92,
6381.000,6.9,
6380.000,6.88,
6379.000,6.87,
6378.000,6.86,
6377.000,6.85,
6376.000,6.84,
6375.000,6.83,
6374.000,6.82,
6373.000,6.81,
6372.000,6.81,
6371.000,6.81,
6370.000,6.82,
6369.000,6.84,
6368.000,6.85,
6367.000,6.87,
6366.000,6.88,
6365.000,6.89,
6364.000,6.91,
6363.000,6.92,
6362.000,6.93,
6361.000,6.95,
6360.000,6.96,
6359.000,6.98,
6358.000,7.01,
6357.000,7.03,
6356.000,7.06,
6355.000,7.09,
6354.000,7.13,
6353.000,7.16,
6352.000,7.19,
6351.000,7.23,
6350.000,7.26,
6349.000,7.31,
6348.000,7.35,
6347.000,7.39,
6346.000,7.43,
6345.000,7.46,
6344.000,7.5,
6343.000,7.53,
6342.000,7.57,
6341.000,7.62,
6340.000,7.67,
6339.000,7.73,
6338.000,7.78,
6337.000,7.83,
6336.000,7.89,
6335.000,7.94,
6334.000,7.99,
6333.000,8.04,
6332.000,8.09,
6331.000,8.15,
6330.000,8.22,
6329.000,8.28,
6328.000,8.33,
6327.000,8.39,
6326.000,8.45,
6325.000,8.52,
6324.000,8.58,
6323.000,8.64,
6322.000,8.7,
6321.000,8.77,
6320.000,8.84,
6319.000,8.9,
6318.000,8.96,
6317.000,9.02,
6316.000,9.09,
6315.000,9.16,
6314.000,9.23,
6313.000,9.3,
6312.000,9.37,
6311.000,9.44,
6310.000,9.51,
6309.000,9.58,
6308.000,9.65,
6307.000,9.73,
6306.000,9.81,
6305.000,9.89,
6304.000,9.97,
6303.000,10.04,
6302.000,10.12,
6301.000,10.2,
6300.000,10.28,
6299.000,10.36,
6298.000,10.44,
6297.000,10.52,
6296.000,10.6,
6295.000,10.68,
6294.000,10.77,
6293.000,10.85,
6292.000,10.94,
6291.000,11.02,
6290.000,11.11,
6289.000,11.19,
6288.000,11.28,
6287.000,11.37,
6286.000,11.46,
6285.000,11.55,
6284.000,11.65,
6283.000,11.74,
6282.000,11.83,
6281.000,11.92,
6280.000,12.01,
6279.000,12.1,
6278.000,12.19,
6277.000,12.27,
6276.000,12.36,
6275.000,12.45,
6274.000,12.54,
6273.000,12.63,
6272.000,12.73,
6271.000,12.82,
6270.000,12.92,
6269.000,13.02,
6268.000,13.11,
6267.000,13.21,
6266.000,13.3,
6265.000,13.39,
6264.000,13.49,
6263.000,13.58,
6262.000,13.67,
6261.000,13.77,
6260.000,13.86,
6259.000,13.96,
6258.000,14.04,
6257.000,14.12,
6256.000,14.2,
6255.000,14.28,
6254.000,14.36,
6253.000,14.43,
6252.000,14.51,
6251.000,14.59,
6250.000,14.66,
6249.000,14.72,
6248.000,14.78,
6247.000,14.84,
6246.000,14.89,
6245.000,14.94,
6244.000,14.99,
6243.000,15.04,
6242.000,15.08,
6241.000,15.11,
6240.000,15.14,
6239.000,15.15,
6238.000,15.16,
6237.000,15.16,
6236.000,15.16,
6235.000,15.16,
6234.000,15.15,
6233.000,15.14,
6232.000,15.12,
6231.000,15.09,
6230.000,15.06,
6229.000,15.02,
6228.000,14.97,
6227.000,14.92,
6226.000,14.86,
6225.000,14.79,
6224.000,14.72,
6223.000,14.65,
6222.000,14.57,
6221.000,14.48,
6220.000,14.37,
6219.000,14.26,
6218.000,14.14,
6217.000,14.02,
6216.000,13.9,
6215.000,13.78,
6214.000,13.66,
6213.000,13.53,
6212.000,13.4,
6211.000,13.26,
6210.000,13.12,
6209.000,12.97,
6208.000,12.83,
6207.000,12.69,
6206.000,12.54,
6205.000,12.39,
6204.000,12.24,
6203.000,12.08,
6202.000,11.93,
6201.000,11.77,
6200.000,11.62,
6199.000,11.47,
6198.000,11.32,
6197.000,11.18,
6196.000,11.03,
6195.000,10.89,
6194.000,10.74,
6193.000,10.59,
6192.000,10.45,
6191.000,10.32,
6190.000,10.19,
6189.000,10.07,
6188.000,9.94,
6187.000,9.82,
6186.000,9.69,
6185.000,9.56,
6184.000,9.44,
6183.000,9.32,
6182.000,9.21,
6181.000,9.1,
6180.000,9.01,
6179.000,8.91,
6178.000,8.81,
6177.000,8.72,
6176.000,8.62,
6175.000,8.53,
6174.000,8.44,
6173.000,8.37,
6172.000,8.29,
6171.000,8.22,
6170.000,8.15,
6169.000,8.07,
6168.000,8,
6167.000,7.93,
6166.000,7.87,
6165.000,7.82,
6164.000,7.77,
6163.000,7.73,
6162.000,7.68,
6161.000,7.64,
6160.000,7.6,
6159.000,7.56,
6158.000,7.52,
6157.000,7.49,
6156.000,7.46,
6155.000,7.44,
6154.000,7.42,
6153.000,7.4,
6152.000,7.38,
6151.000,7.36,
6150.000,7.35,
6149.000,7.34,
6148.000,7.33,
6147.000,7.32,
6146.000,7.31,
6145.000,7.31,
6144.000,7.32,
6143.000,7.33,
6142.000,7.34,
6141.000,7.35,
6140.000,7.36,
6139.000,7.37,
6138.000,7.38,
6137.000,7.39,
6136.000,7.4,
6135.000,7.42,
6134.000,7.45,
6133.000,7.47,
6132.000,7.5,
6131.000,7.53,
6130.000,7.55,
6129.000,7.58,
6128.000,7.61,
6127.000,7.64,
6126.000,7.68,
6125.000,7.72,
6124.000,7.75,
6123.000,7.79,
6122.000,7.83,
6121.000,7.87,
6120.000,7.92,
6119.000,7.97,
6118.000,8.02,
6117.000,8.07,
6116.000,8.13,
6115.000,8.18,
6114.000,8.23,
6113.000,8.28,
6112.000,8.33,
6111.000,8.39,
6110.000,8.44,
6109.000,8.5,
6108.000,8.55,
6107.000,8.6,
6106.000,8.66,
6105.000,8.73,
6104.000,8.79,
6103.000,8.86,
6102.000,8.92,
6101.000,8.99,
6100.000,9.05,
6099.000,9.11,
6098.000,9.18,
6097.000,9.24,
6096.000,9.31,
6095.000,9.37,
6094.000,9.44,
6093.000,9.51,
6092.000,9.58,
6091.000,9.65,
6090.000,9.73,
6089.000,9.8,
6088.000,9.87,
6087.000,9.94,
6086.000,10,
6085.000,10.07,
6084.000,10.13,
6083.000,10.2,
6082.000,10.26,
6081.000,10.33,
6080.000,10.41,
6079.000,10.49,
6078.000,10.57,
6077.000,10.65,
6076.000,10.72,
6075.000,10.8,
6074.000,10.88,
6073.000,10.95,
6072.000,11.03,
6071.000,11.1,
6070.000,11.18,
6069.000,11.25,
6068.000,11.33,
6067.000,11.41,
6066.000,11.48,
6065.000,11.56,
6064.000,11.64,
6063.000,11.73,
6062.000,11.81,
6061.000,11.89,
6060.000,11.97,
6059.000,12.06,
6058.000,12.14,
6057.000,12.23,
6056.000,12.31,
6055.000,12.4,
6054.000,12.48,
6053.000,12.57,
6052.000,12.65,
6051.000,12.74,
6050.000,12.82,
6049.000,12.91,
6048.000,13.01,
6047.000,13.11,
6046.000,13.21,
6045.000,13.3,
6044.000,13.4,
6043.000,13.49,
6042.000,13.59,
6041.000,13.68,
6040.000,13.77,
6039.000,13.87,
6038.000,13.96,
6037.000,14.06,
6036.000,14.15,
6035.000,14.24,
6034.000,14.33,
6033.000,14.43,
6032.000,14.52,
6031.000,14.62,
6030.000,14.72,
6029.000,14.81,
6028.000,14.91,
6027.000,15,
6026.000,15.08,
6025.000,15.17,
6024.000,15.25,
6023.000,15.33,
6022.000,15.41,
6021.000,15.49,
6020.000,15.57,
6019.000,15.64,
6018.000,15.71,
6017.000,15.77,
6016.000,15.83,
6015.000,15.88,
6014.000,15.93,
6013.000,15.98,
6012.000,16.03,
6011.000,16.07,
6010.000,16.1,
6009.000,16.13,
6008.000,16.14,
6007.000,16.16,
6006.000,16.16,
6005.000,16.16,
6004.000,16.15,
6003.000,16.14,
6002.000,16.12,
6001.000,16.09,
6000.000,16.05,
5999.000,16.01,
5998.000,15.96,
5997.000,15.9,
5996.000,15.83,
5995.000,15.75,
5994.000,15.66,
5993.000,15.57,
5992.000,15.47,
5991.000,15.37,
5990.000,15.26,
5989.000,15.15,
5988.000,15.02,
5987.000,14.89,
5986.000,14.75,
5985.000,14.6,
5984.000,14.45,
5983.000,14.3,
5982.000,14.14,
5981.000,13.98,
5980.000,13.82,
5979.000,13.65,
5978.000,13.47,
5977.000,13.29,
5976.000,13.12,
5975.000,12.94,
5974.000,12.77,
5973.000,12.6,
5972.000,12.42,
5971.000,12.25,
5970.000,12.07,
5969.000,11.89,
5968.000,11.71,
5967.000,11.54,
5966.000,11.36,
5965.000,11.19,
5964.000,11.02,
5963.000,10.85,
5962.000,10.69,
5961.000,10.53,
5960.000,10.37,
5959.000,10.21,
5958.000,10.06,
5957.000,9.9,
5956.000,9.75,
5955.000,9.6,
5954.000,9.46,
5953.000,9.32,
5952.000,9.18,
5951.000,9.05,
5950.000,8.93,
5949.000,8.81,
5948.000,8.69,
5947.000,8.58,
5946.000,8.46,
5945.000,8.35,
5944.000,8.24,
5943.000,8.13,
5942.000,8.04,
5941.000,7.94,
5940.000,7.84,
5939.000,7.75,
5938.000,7.66,
5937.000,7.57,
5936.000,7.49,
5935.000,7.42,
5934.000,7.35,
5933.000,7.28,
5932.000,7.22,
5931.000,7.16,
5930.000,7.1,
5929.000,7.04,
5928.000,6.99,
5927.000,6.94,
5926.000,6.89,
5925.000,6.85,
5924.000,6.81,
5923.000,6.78,
5922.000,6.74,
5921.000,6.72,
5920.000,6.69,
5919.000,6.66,
5918.000,6.64,
5917.000,6.62,
5916.000,6.6,
5915.000,6.58,
5914.000,6.57,
5913.000,6.56,
5912.000,6.55,
5911.000,6.55,
5910.000,6.55,
5909.000,6.55,
5908.000,6.55,
5907.000,6.56,
5906.000,6.56,
5905.000,6.57,
5904.000,6.59,
5903.000,6.6,
5902.000,6.62,
5901.000,6.64,
5900.000,6.66,
5899.000,6.68,
5898.000,6.71,
5897.000,6.73,
5896.000,6.76,
5895.000,6.79,
5894.000,6.82,
5893.000,6.85,
5892.000,6.88,
5891.000,6.91,
5890.000,6.95,
5889.000,7,
5888.000,7.05,
5887.000,7.1,
5886.000,7.14,
5885.000,7.19,
5884.000,7.24,
5883.000,7.28,
5882.000,7.33,
5881.000,7.39,
5880.000,7.44,
5879.000,7.5,
5878.000,7.56,
5877.000,7.61,
5876.000,7.66,
5875.000,7.72,
5874.000,7.78,
5873.000,7.84,
5872.000,7.9,
5871.000,7.96,
5870.000,8.02,
5869.000,8.09,
5868.000,8.15,
5867.000,8.23,
5866.000,8.3,
5865.000,8.38,
5864.000,8.45,
5863.000,8.53,
5862.000,8.6,
5861.000,8.66,
5860.000,8.73,
5859.000,8.8,
5858.000,8.88,
5857.000,8.96,
5856.000,9.04,
5855.000,9.12,
5854.000,9.2,
5853.000,9.28,
5852.000,9.36,
5851.000,9.44,
5850.000,9.52,
5849.000,9.61,
5848.000,9.7,
5847.000,9.79,
5846.000,9.88,
5845.000,9.97,
5844.000,10.05,
5843.000,10.14,
5842.000,10.22,
5841.000,10.31,
5840.000,10.4,
5839.000,10.49,
5838.000,10.59,
5837.000,10.69,
5836.000,10.79,
5835.000,10.89,
5834.000,10.98,
5833.000,11.08,
5832.000,11.17,
5831.000,11.26,
5830.000,11.36,
5829.000,11.45,
5828.000,11.55,
5827.000,11.66,
5826.000,11.77,
5825.000,11.87,
5824.000,11.98,
5823.000,12.08,
5822.000,12.18,
5821.000,12.29,
5820.000,12.39,
5819.000,12.49,
5818.000,12.6,
5817.000,12.71,
5816.000,12.82,
5815.000,12.93,
5814.000,13.04,
5813.000,13.14,
5812.000,13.25,
5811.000,13.36,
5810.000,13.47,
5809.000,13.59,
5808.000,13.7,
5807.000,13.82,
5806.000,13.93,
5805.000,14.04,
5804.000,14.16,
5803.000,14.26,
5802.000,14.37,
5801.000,14.48,
5800.000,14.59,
5799.000,14.7,
5798.000,14.81,
5797.000,14.92,
5796.000,15.03,
5795.000,15.14,
5794.000,15.25,
5793.000,15.35,
5792.000,15.45,
5791.000,15.55,
5790.000,15.64,
5789.000,15.73,
5788.000,15.82,
5787.000,15.9,
5786.000,15.97,
5785.000,16.04,
5784.000,16.11,
5783.000,16.18,
5782.000,16.24,
5781.000,16.29,
5780.000,16.34,
5779.000,16.38,
5778.000,16.41,
5777.000,16.44,
5776.000,16.46,
5775.000,16.48,
5774.000,16.48,
5773.000,16.48,
5772.000,16.47,
5771.000,16.44,
5770.000,16.41,
5769.000,16.37,
5768.000,16.32,
5767.000,16.26,
5766.000,16.2,
5765.000,16.12,
5764.000,16.04,
5763.000,15.94,
5762.000,15.84,
5761.000,15.73,
5760.000,15.6,
5759.000,15.48,
5758.000,15.34,
5757.000,15.2,
5756.000,15.05,
5755.000,14.91,
5754.000,14.75,
5753.000,14.59,
5752.000,14.42,
5751.000,14.24,
5750.000,14.06,
5749.000,13.87,
5748.000,13.69,
5747.000,13.51,
5746.000,13.32,
5745.000,13.13,
5744.000,12.93,
5743.000,12.74,
5742.000,12.54,
5741.000,12.34,
5740.000,12.15,
5739.000,11.96,
5738.000,11.77,
5737.000,11.58,
5736.000,11.4,
5735.000,11.22,
5734.000,11.04,
5733.000,10.87,
5732.000,10.69,
5731.000,10.52,
5730.000,10.35,
5729.000,10.18,
5728.000,10.01,
5727.000,9.85,
5726.000,9.7,
5725.000,9.54,
5724.000,9.39,
5723.000,9.25,
5722.000,9.11,
5721.000,8.97,
5720.000,8.84,
5719.000,8.71,
5718.000,8.58,
5717.000,8.46,
5716.000,8.34,
5715.000,8.22,
5714.000,8.11,
5713.000,7.99,
5712.000,7.89,
5711.000,7.79,
5710.000,7.69,
5709.000,7.59,
5708.000,7.5,
5707.000,7.42,
5706.000,7.33,
5705.000,7.25,
5704.000,7.17,
5703.000,7.1,
5702.000,7.04,
5701.000,6.98,
5700.000,6.91,
5699.000,6.85,
5698.000,6.79,
5697.000,6.74,
5696.000,6.68,
5695.000,6.63,
5694.000,6.58,
5693.000,6.54,
5692.000,6.5,
5691.000,6.47,
5690.000,6.44,
5689.000,6.41,
5688.000,6.38,
5687.000,6.35,
5686.000,6.33,
5685.000,6.3,
5684.000,6.28,
5683.000,6.27,
5682.000,6.25,
5681.000,6.25,
5680.000,6.24,
5679.000,6.24,
5678.000,6.24,
5677.000,6.24,
5676.000,6.24,
5675.000,6.24,
5674.000,6.24,
5673.000,6.25,
5672.000,6.26,
5671.000,6.28,
5670.000,6.3,
5669.000,6.31,
5668.000,6.34,
5667.000,6.36,
5666.000,6.39,
5665.000,6.42,
5664.000,6.44,
5663.000,6.47,
5662.000,6.5,
5661.000,6.53,
5660.000,6.56,
5659.000,6.6,
5658.000,6.65,
5657.000,6.69,
5656.000,6.73,
5655.000,6.78,
5654.000,6.82,
5653.000,6.87,
5652.000,6.93,
5651.000,6.98,
5650.000,7.04,
5649.000,7.09,
5648.000,7.15,
5647.000,7.21,
5646.000,7.26,
5645.000,7.33,
5644.000,7.39,
5643.000,7.46,
5642.000,7.52,
5641.000,7.59,
5640.000,7.66,
5639.000,7.73,
5638.000,7.8,
5637.000,7.87,
5636.000,7.94,
5635.000,8.02,
5634.000,8.09,
5633.000,8.17,
5632.000,8.25,
5631.000,8.32,
5630.000,8.4,
5629.000,8.48,
5628.000,8.56,
5627.000,8.64,
5626.000,8.73,
5625.000,8.81,
5624.000,8.9,
5623.000,8.99,
5622.000,9.08,
5621.000,9.16,
5620.000,9.25,
5619.000,9.34,
5618.000,9.44,
5617.000,9.53,
5616.000,9.63,
5615.000,9.72,
5614.000,9.82,
5613.000,9.91,
5612.000,10.01,
5611.000,10.1,
5610.000,10.21,
5609.000,10.31,
5608.000,10.41,
5607.000,10.51,
5606.000,10.61,
5605.000,10.71,
5604.000,10.81,
5603.000,10.92,
5602.000,11.03,
5601.000,11.14,
5600.000,11.25,
5599.000,11.36,
5598.000,11.46,
5597.000,11.57,
5596.000,11.67,
5595.000,11.77,
5594.000,11.88,
5593.000,11.99,
5592.000,12.11,
5591.000,12.23,
5590.000,12.35,
5589.000,12.47,
5588.000,12.58,
5587.000,12.7,
5586.000,12.82,
5585.000,12.94,
5584.000,13.06,
5583.000,13.18,
5582.000,13.3,
5581.000,13.43,
5580.000,13.55,
5579.000,13.67,
5578.000,13.8,
5577.000,13.92,
5576.000,14.04,
5575.000,14.17,
5574.000,14.29,
5573.000,14.41,
5572.000,14.53,
5571.000,14.65,
5570.000,14.78,
5569.000,14.9,
5568.000,15.02,
5567.000,15.14,
5566.000,15.26,
5565.000,15.38,
5564.000,15.49,
5563.000,15.6,
5562.000,15.72,
5561.000,15.83,
5560.000,15.93,
5559.000,16.04,
5558.000,16.14,
5557.000,16.24,
5556.000,16.34,
5555.000,16.43,
5554.000,16.51,
5553.000,16.6,
5552.000,16.67,
5551.000,16.75,
5550.000,16.82,
5549.000,16.88,
5548.000,16.93,
5547.000,16.97,
5546.000,17.01,
5545.000,17.03,
5544.000,17.05,
5543.000,17.07,
5542.000,17.07,
5541.000,17.07,
5540.000,17.05,
5539.000,17.03,
5538.000,16.99,
5537.000,16.95,
5536.000,16.89,
5535.000,16.83,
5534.000,16.76,
5533.000,16.68,
5532.000,16.59,
5531.000,16.49,
5530.000,16.38,
5529.000,16.25,
5528.000,16.12,
5527.000,15.97,
5526.000,15.82,
5525.000,15.67,
5524.000,15.51,
5523.000,15.34,
5522.000,15.17,
5521.000,14.99,
5520.000,14.8,
5519.000,14.61,
5518.000,14.42,
5517.000,14.22,
5516.000,14.02,
5515.000,13.82,
5514.000,13.61,
5513.000,13.4,
5512.000,13.2,
5511.000,12.99,
5510.000,12.78,
5509.000,12.58,
5508.000,12.37,
5507.000,12.17,
5506.000,11.96,
5505.000,11.76,
5504.000,11.56,
5503.000,11.36,
5502.000,11.17,
5501.000,10.98,
5500.000,10.79,
5499.000,10.61,
5498.000,10.43,
5497.000,10.25,
5496.000,10.07,
5495.000,9.9,
5494.000,9.73,
5493.000,9.57,
5492.000,9.41,
5491.000,9.25,
5490.000,9.09,
5489.000,8.94,
5488.000,8.8,
5487.000,8.66,
5486.000,8.51,
5485.000,8.38,
5484.000,8.24,
5483.000,8.11,
5482.000,7.99,
5481.000,7.87,
5480.000,7.76,
5479.000,7.65,
5478.000,7.55,
5477.000,7.45,
5476.000,7.35,
5475.000,7.26,
5474.000,7.17,
5473.000,7.08,
5472.000,6.99,
5471.000,6.9,
5470.000,6.82,
5469.000,6.74,
5468.000,6.67,
5467.000,6.6,
5466.000,6.53,
5465.000,6.47,
5464.000,6.42,
5463.000,6.36,
5462.000,6.31,
5461.000,6.26,
5460.000,6.21,
5459.000,6.16,
5458.000,6.12,
5457.000,6.08,
5456.000,6.04,
5455.000,6,
5454.000,5.97,
5453.000,5.94,
5452.000,5.92,
5451.000,5.9,
5450.000,5.89,
5449.000,5.87,
5448.000,5.86,
5447.000,5.86,
5446.000,5.85,
5445.000,5.85,
5444.000,5.84,
5443.000,5.84,
5442.000,5.85,
5441.000,5.85,
5440.000,5.85,
5439.000,5.86,
5438.000,5.87,
5437.000,5.89,
5436.000,5.91,
5435.000,5.93,
5434.000,5.95,
5433.000,5.97,
5432.000,6,
5431.000,6.03,
5430.000,6.07,
5429.000,6.1,
5428.000,6.13,
5427.000,6.16,
5426.000,6.19,
5425.000,6.22,
5424.000,6.26,
5423.000,6.3,
5422.000,6.35,
5421.000,6.4,
5420.000,6.46,
5419.000,6.51,
5418.000,6.57,
5417.000,6.63,
5416.000,6.69,
5415.000,6.75,
5414.000,6.81,
5413.000,6.87,
5412.000,6.93,
5411.000,7,
5410.000,7.06,
5409.000,7.12,
5408.000,7.19,
5407.000,7.26,
5406.000,7.32,
5405.000,7.39,
5404.000,7.46,
5403.000,7.54,
5402.000,7.61,
5401.000,7.69,
5400.000,7.77,
5399.000,7.86,
5398.000,7.95,
5397.000,8.03,
5396.000,8.12,
5395.000,8.21,
5394.000,8.3,
5393.000,8.38,
5392.000,8.46,
5391.000,8.54,
5390.000,8.63,
5389.000,8.72,
5388.000,8.81,
5387.000,8.9,
5386.000,9,
5385.000,9.09,
5384.000,9.19,
5383.000,9.29,
5382.000,9.39,
5381.000,9.49,
5380.000,9.59,
5379.000,9.68,
5378.000,9.79,
5377.000,9.89,
5376.000,9.99,
5375.000,10.09,
5374.000,10.19,
5373.000,10.29,
5372.000,10.39,
5371.000,10.5,
5370.000,10.6,
5369.000,10.71,
5368.000,10.81,
5367.000,10.92,
5366.000,11.03,
5365.000,11.14,
5364.000,11.25,
5363.000,11.36,
5362.000,11.47,
5361.000,11.59,
5360.000,11.7,
5359.000,11.82,
5358.000,11.94,
5357.000,12.06,
5356.000,12.18,
5355.000,12.3,
5354.000,12.42,
5353.000,12.55,
5352.000,12.67,
5351.000,12.8,
5350.000,12.93,
5349.000,13.05,
5348.000,13.18,
5347.000,13.3,
5346.000,13.43,
5345.000,13.56,
5344.000,13.69,
5343.000,13.83,
5342.000,13.96,
5341.000,14.08,
5340.000,14.19,
5339.000,14.31,
5338.000,14.43,
5337.000,14.55,
5336.000,14.67,
5335.000,14.79,
5334.000,14.91,
5333.000,15.02,
5332.000,15.13,
5331.000,15.23,
5330.000,15.34,
5329.000,15.44,
5328.000,15.54,
5327.000,15.64,
5326.000,15.74,
5325.000,15.84,
5324.000,15.93,
5323.000,16.02,
5322.000,16.09,
5321.000,16.16,
5320.000,16.23,
5319.000,16.29,
5318.000,16.34,
5317.000,16.39,
5316.000,16.43,
5315.000,16.47,
5314.000,16.5,
5313.000,16.52,
5312.000,16.53,
5311.000,16.54,
5310.000,16.53,
5309.000,16.51,
5308.000,16.48,
5307.000,16.44,
5306.000,16.39,
5305.000,16.33,
5304.000,16.25,
5303.000,16.17,
5302.000,16.07,
5301.000,15.95,
5300.000,15.83,
5299.000,15.7,
5298.000,15.56,
5297.000,15.41,
5296.000,15.25,
5295.000,15.09,
5294.000,14.92,
5293.000,14.74,
5292.000,14.55,
5291.000,14.36,
5290.000,14.16,
5289.000,13.95,
5288.000,13.73,
5287.000,13.52,
5286.000,13.3,
5285.000,13.08,
5284.000,12.86,
5283.000,12.63,
5282.000,12.41,
5281.000,12.19,
5280.000,11.96,
5279.000,11.74,
5278.000,11.51,
5277.000,11.28,
5276.000,11.06,
5275.000,10.85,
5274.000,10.64,
5273.000,10.44,
5272.000,10.24,
5271.000,10.04,
5270.000,9.85,
5269.000,9.66,
5268.000,9.48,
5267.000,9.3,
5266.000,9.12,
5265.000,8.95,
5264.000,8.77,
5263.000,8.6,
5262.000,8.43,
5261.000,8.27,
5260.000,8.12,
5259.000,7.97,
5258.000,7.82,
5257.000,7.68,
5256.000,7.55,
5255.000,7.42,
5254.000,7.29,
5253.000,7.16,
5252.000,7.05,
5251.000,6.93,
5250.000,6.83,
5249.000,6.72,
5248.000,6.62,
5247.000,6.53,
5246.000,6.43,
5245.000,6.34,
5244.000,6.25,
5243.000,6.17,
5242.000,6.08,
5241.000,6.01,
5240.000,5.93,
5239.000,5.86,
5238.000,5.8,
5237.000,5.73,
5236.000,5.67,
5235.000,5.62,
5234.000,5.56,
5233.000,5.51,
5232.000,5.46,
5231.000,5.42,
5230.000,5.37,
5229.000,5.34,
5228.000,5.31,
5227.000,5.28,
5226.000,5.25,
5225.000,5.23,
5224.000,5.2,
5223.000,5.17,
5222.000,5.15,
5221.000,5.13,
5220.000,5.12,
5219.000,5.1,
5218.000,5.09,
5217.000,5.08,
5216.000,5.07,
5215.000,5.06,
5214.000,5.06,
5213.000,5.06,
5212.000,5.07,
5211.000,5.08,
5210.000,5.09,
5209.000,5.1,
5208.000,5.11,
5207.000,5.13,
5206.000,5.14,
5205.000,5.16,
5204.000,5.18,
5203.000,5.2,
5202.000,5.22,
5201.000,5.25,
5200.000,5.27,
5199.000,5.3,
5198.000,5.34,
5197.000,5.37,
5196.000,5.41,
5195.000,5.45,
5194.000,5.49,
5193.000,5.53,
5192.000,5.58,
5191.000,5.63,
5190.000,5.68,
5189.000,5.73,
5188.000,5.79,
5187.000,5.84,
5186.000,5.9,
5185.000,5.96,
5184.000,6.03,
5183.000,6.09,
5182.000,6.16,
5181.000,6.23,
5180.000,6.3,
5179.000,6.36,
5178.000,6.43,
5177.000,6.5,
5176.000,6.57,
5175.000,6.65,
5174.000,6.73,
5173.000,6.81,
5172.000,6.89,
5171.000,6.97,
5170.000,7.05,
5169.000,7.13,
5168.000,7.22,
5167.000,7.31,
5166.000,7.4,
5165.000,7.5,
5164.000,7.59,
5163.000,7.68,
5162.000,7.77,
5161.000,7.86,
5160.000,7.95,
5159.000,8.05,
5158.000,8.15,
5157.000,8.25,
5156.000,8.35,
5155.000,8.45,
5154.000,8.56,
5153.000,8.66,
5152.000,8.76,
5151.000,8.86,
5150.000,8.97,
5149.000,9.07,
5148.000,9.18,
5147.000,9.28,
5146.000,9.39,
5145.000,9.49,
5144.000,9.6,
5143.000,9.71,
5142.000,9.83,
5141.000,9.94,
5140.000,10.05,
5139.000,10.16,
5138.000,10.28,
5137.000,10.39,
5136.000,10.5,
5135.000,10.62,
5134.000,10.74,
5133.000,10.85,
5132.000,10.97,
5131.000,11.09,
5130.000,11.21,
5129.000,11.33,
5128.000,11.45,
5127.000,11.57,
5126.000,11.69,
5125.000,11.82,
5124.000,11.94,
5123.000,12.07,
5122.000,12.2,
5121.000,12.32,
5120.000,12.45,
5119.000,12.58,
5118.000,12.71,
5117.000,12.84,
5116.000,12.97,
5115.000,13.1,
5114.000,13.22,
5113.000,13.35,
5112.000,13.48,
5111.000,13.61,
5110.000,13.75,
5109.000,13.88,
5108.000,14.01,
5107.000,14.14,
5106.000,14.27,
5105.000,14.4,
5104.000,14.53,
5103.000,14.65,
5102.000,14.78,
5101.000,14.9,
5100.000,15.03,
5099.000,15.15,
5098.000,15.27,
5097.000,15.38,
5096.000,15.49,
5095.000,15.6,
5094.000,15.71,
5093.000,15.81,
5092.000,15.9,
5091.000,15.99,
5090.000,16.08,
5089.000,16.15,
5088.000,16.22,
5087.000,16.29,
5086.000,16.35,
5085.000,16.39,
5084.000,16.44,
5083.000,16.47,
5082.000,16.49,
5081.000,16.5,
5080.000,16.51,
5079.000,16.5,
5078.000,16.48,
5077.000,16.45,
5076.000,16.4,
5075.000,16.34,
5074.000,16.28,
5073.000,16.19,
5072.000,16.1,
5071.000,16,
5070.000,15.88,
5069.000,15.75,
5068.000,15.61,
5067.000,15.46,
5066.000,15.3,
5065.000,15.13,
5064.000,14.95,
5063.000,14.76,
5062.000,14.56,
5061.000,14.35,
5060.000,14.14,
5059.000,13.92,
5058.000,13.69,
5057.000,13.46,
5056.000,13.23,
5055.000,13,
5054.000,12.77,
5053.000,12.54,
5052.000,12.3,
5051.000,12.06,
5050.000,11.81,
5049.000,11.57,
5048.000,11.33,
5047.000,11.09,
5046.000,10.86,
5045.000,10.63,
5044.000,10.4,
5043.000,10.18,
5042.000,9.97,
5041.000,9.76,
5040.000,9.55,
5039.000,9.34,
5038.000,9.15,
5037.000,8.95,
5036.000,8.76,
5035.000,8.57,
5034.000,8.39,
5033.000,8.21,
5032.000,8.04,
5031.000,7.87,
5030.000,7.71,
5029.000,7.55,
5028.000,7.4,
5027.000,7.25,
5026.000,7.11,
5025.000,6.97,
5024.000,6.84,
5023.000,6.71,
5022.000,6.59,
5021.000,6.47,
5020.000,6.36,
5019.000,6.25,
5018.000,6.14,
5017.000,6.04,
5016.000,5.94,
5015.000,5.84,
5014.000,5.75,
5013.000,5.66,
5012.000,5.58,
5011.000,5.5,
5010.000,5.43,
5009.000,5.36,
5008.000,5.29,
5007.000,5.22,
5006.000,5.16,
5005.000,5.1,
5004.000,5.04,
5003.000,4.99,
5002.000,4.94,
5001.000,4.89,
5000.000,4.84,
4999.000,4.8,
4998.000,4.76,
4997.000,4.72,
4996.000,4.69,
4995.000,4.66,
4994.000,4.62,
4993.000,4.6,
4992.000,4.57,
4991.000,4.55,
4990.000,4.53,
4989.000,4.51,
4988.000,4.5,
4987.000,4.48,
4986.000,4.47,
4985.000,4.46,
4984.000,4.46,
4983.000,4.46,
4982.000,4.45,
4981.000,4.45,
4980.000,4.45,
4979.000,4.45,
4978.000,4.46,
4977.000,4.46,
4976.000,4.47,
4975.000,4.48,
4974.000,4.49,
4973.000,4.51,
4972.000,4.53,
4971.000,4.55,
4970.000,4.58,
4969.000,4.61,
4968.000,4.63,
4967.000,4.66,
4966.000,4.69,
4965.000,4.73,
4964.000,4.76,
4963.000,4.8,
4962.000,4.84,
4961.000,4.88,
4960.000,4.92,
4959.000,4.96,
4958.000,5.01,
4957.000,5.06,
4956.000,5.11,
4955.000,5.17,
4954.000,5.22,
4953.000,5.28,
4952.000,5.34,
4951.000,5.4,
4950.000,5.47,
4949.000,5.53,
4948.000,5.6,
4947.000,5.67,
4946.000,5.74,
4945.000,5.81,
4944.000,5.89,
4943.000,5.96,
4942.000,6.04,
4941.000,6.12,
4940.000,6.2,
4939.000,6.29,
4938.000,6.37,
4937.000,6.45,
4936.000,6.54,
4935.000,6.63,
4934.000,6.72,
4933.000,6.8,
4932.000,6.89,
4931.000,6.98,
4930.000,7.07,
4929.000,7.17,
4928.000,7.26,
4927.000,7.36,
4926.000,7.45,
4925.000,7.55,
4924.000,7.65,
4923.000,7.74,
4922.000,7.85,
4921.000,7.95,
4920.000,8.05,
4919.000,8.16,
4918.000,8.26,
4917.000,8.36,
4916.000,8.47,
4915.000,8.57,
4914.000,8.68,
4913.000,8.79,
4912.000,8.89,
4911.000,9,
4910.000,9.11,
4909.000,9.22,
4908.000,9.34,
4907.000,9.45,
4906.000,9.57,
4905.000,9.68,
4904.000,9.8,
4903.000,9.91,
4902.000,10.03,
4901.000,10.14,
4900.000,10.26,
4899.000,10.38,
4898.000,10.5,
4897.000,10.62,
4896.000,10.75,
4895.000,10.87,
4894.000,10.99,
4893.000,11.12,
4892.000,11.24,
4891.000,11.37,
4890.000,11.5,
4889.000,11.63,
4888.000,11.76,
4887.000,11.89,
4886.000,12.02,
4885.000,12.15,
4884.000,12.28,
4883.000,12.41,
4882.000,12.55,
4881.000,12.68,
4880.000,12.82,
4879.000,12.95,
4878.000,13.09,
4877.000,13.22,
4876.000,13.36,
4875.000,13.5,
4874.000,13.63,
4873.000,13.77,
4872.000,13.91,
4871.000,14.04,
4870.000,14.17,
4869.000,14.3,
4868.000,14.43,
4867.000,14.56,
4866.000,14.68,
4865.000,14.8,
4864.000,14.92,
4863.000,15.04,
4862.000,15.15,
4861.000,15.25,
4860.000,15.36,
4859.000,15.45,
4858.000,15.54,
4857.000,15.62,
4856.000,15.69,
4855.000,15.76,
4854.000,15.81,
4853.000,15.86,
4852.000,15.89,
4851.000,15.92,
4850.000,15.93,
4849.000,15.92,
4848.000,15.91,
4847.000,15.88,
4846.000,15.85,
4845.000,15.79,
4844.000,15.72,
4843.000,15.64,
4842.000,15.55,
4841.000,15.44,
4840.000,15.31,
4839.000,15.18,
4838.000,15.03,
4837.000,14.88,
4836.000,14.71,
4835.000,14.52,
4834.000,14.33,
4833.000,14.13,
4832.000,13.92,
4831.000,13.69,
4830.000,13.47,
4829.000,13.23,
4828.000,12.99,
4827.000,12.75,
4826.000,12.51,
4825.000,12.27,
4824.000,12.02,
4823.000,11.77,
4822.000,11.51,
4821.000,11.26,
4820.000,11.01,
4819.000,10.76,
4818.000,10.52,
4817.000,10.27,
4816.000,10.04,
4815.000,9.8,
4814.000,9.57,
4813.000,9.35,
4812.000,9.13,
4811.000,8.91,
4810.000,8.7,
4809.000,8.49,
4808.000,8.3,
4807.000,8.1,
4806.000,7.91,
4805.000,7.73,
4804.000,7.55,
4803.000,7.37,
4802.000,7.21,
4801.000,7.05,
4800.000,6.89,
4799.000,6.74,
4798.000,6.6,
4797.000,6.46,
4796.000,6.32,
4795.000,6.19,
4794.000,6.06,
4793.000,5.94,
4792.000,5.82,
4791.000,5.71,
4790.000,5.6,
4789.000,5.5,
4788.000,5.4,
4787.000,5.3,
4786.000,5.21,
4785.000,5.12,
4784.000,5.04,
4783.000,4.96,
4782.000,4.88,
4781.000,4.81,
4780.000,4.74,
4779.000,4.68,
4778.000,4.61,
4777.000,4.55,
4776.000,4.49,
4775.000,4.43,
4774.000,4.38,
4773.000,4.33,
4772.000,4.28,
4771.000,4.24,
4770.000,4.2,
4769.000,4.16,
4768.000,4.13,
4767.000,4.1,
4766.000,4.07,
4765.000,4.04,
4764.000,4.01,
4763.000,3.98,
4762.000,3.96,
4761.000,3.94,
4760.000,3.92,
4759.000,3.9,
4758.000,3.89,
4757.000,3.87,
4756.000,3.86,
4755.000,3.85,
4754.000,3.84,
4753.000,3.83,
4752.000,3.83,
4751.000,3.83,
4750.000,3.83,
4749.000,3.83,
4748.000,3.84,
4747.000,3.84,
4746.000,3.85,
4745.000,3.87,
4744.000,3.88,
4743.000,3.89,
4742.000,3.91,
4741.000,3.92,
4740.000,3.94,
4739.000,3.96,
4738.000,3.98,
4737.000,4,
4736.000,4.02,
4735.000,4.05,
4734.000,4.08,
4733.000,4.12,
4732.000,4.15,
4731.000,4.2,
4730.000,4.24,
4729.000,4.28,
4728.000,4.32,
4727.000,4.37,
4726.000,4.41,
4725.000,4.46,
4724.000,4.51,
4723.000,4.56,
4722.000,4.62,
4721.000,4.68,
4720.000,4.74,
4719.000,4.8,
4718.000,4.87,
4717.000,4.93,
4716.000,5,
4715.000,5.08,
4714.000,5.15,
4713.000,5.22,
4712.000,5.3,
4711.000,5.38,
4710.000,5.46,
4709.000,5.54,
4708.000,5.63,
4707.000,5.71,
4706.000,5.8,
4705.000,5.88,
4704.000,5.97,
4703.000,6.06,
4702.000,6.15,
4701.000,6.24,
4700.000,6.34,
4699.000,6.44,
4698.000,6.53,
4697.000,6.63,
4696.000,6.73,
4695.000,6.82,
4694.000,6.92,
4693.000,7.02,
4692.000,7.11,
4691.000,7.21,
4690.000,7.3,
4689.000,7.4,
4688.000,7.49,
4687.000,7.59,
4686.000,7.69,
4685.000,7.79,
4684.000,7.9,
4683.000,8,
4682.000,8.09,
4681.000,8.19,
4680.000,8.29,
4679.000,8.4,
4678.000,8.5,
4677.000,8.61,
4676.000,8.72,
4675.000,8.83,
4674.000,8.94,
4673.000,9.06,
4672.000,9.17,
4671.000,9.28,
4670.000,9.4,
4669.000,9.52,
4668.000,9.64,
4667.000,9.76,
4666.000,9.89,
4665.000,10.02,
4664.000,10.14,
4663.000,10.27,
4662.000,10.4,
4661.000,10.54,
4660.000,10.67,
4659.000,10.81,
4658.000,10.95,
4657.000,11.1,
4656.000,11.24,
4655.000,11.38,
4654.000,11.52,
4653.000,11.67,
4652.000,11.81,
4651.000,11.96,
4650.000,12.11,
4649.000,12.26,
4648.000,12.4,
4647.000,12.55,
4646.000,12.7,
4645.000,12.85,
4644.000,13,
4643.000,13.15,
4642.000,13.3,
4641.000,13.45,
4640.000,13.59,
4639.000,13.74,
4638.000,13.88,
4637.000,14.02,
4636.000,14.16,
4635.000,14.3,
4634.000,14.43,
4633.000,14.56,
4632.000,14.68,
4631.000,14.8,
4630.000,14.91,
4629.000,15.02,
4628.000,15.12,
4627.000,15.21,
4626.000,15.3,
4625.000,15.37,
4624.000,15.44,
4623.000,15.49,
4622.000,15.53,
4621.000,15.56,
4620.000,15.57,
4619.000,15.58,
4618.000,15.57,
4617.000,15.54,
4616.000,15.5,
4615.000,15.45,
4614.000,15.38,
4613.000,15.29,
4612.000,15.19,
4611.000,15.08,
4610.000,14.95,
4609.000,14.81,
4608.000,14.66,
4607.000,14.49,
4606.000,14.3,
4605.000,14.11,
4604.000,13.9,
4603.000,13.69,
4602.000,13.47,
4601.000,13.23,
4600.000,12.99,
4599.000,12.74,
4598.000,12.49,
4597.000,12.23,
4596.000,11.98,
4595.000,11.72,
4594.000,11.45,
4593.000,11.19,
4592.000,10.93,
4591.000,10.67,
4590.000,10.41,
4589.000,10.15,
4588.000,9.9,
4587.000,9.65,
4586.000,9.4,
4585.000,9.16,
4584.000,8.93,
4583.000,8.7,
4582.000,8.47,
4581.000,8.25,
4580.000,8.04,
4579.000,7.83,
4578.000,7.63,
4577.000,7.43,
4576.000,7.24,
4575.000,7.06,
4574.000,6.88,
4573.000,6.71,
4572.000,6.54,
4571.000,6.38,
4570.000,6.23,
4569.000,6.08,
4568.000,5.94,
4567.000,5.8,
4566.000,5.67,
4565.000,5.54,
4564.000,5.42,
4563.000,5.3,
4562.000,5.18,
4561.000,5.07,
4560.000,4.97,
4559.000,4.87,
4558.000,4.77,
4557.000,4.68,
4556.000,4.6,
4555.000,4.51,
4554.000,4.43,
4553.000,4.36,
4552.000,4.28,
4551.000,4.22,
4550.000,4.15,
4549.000,4.08,
4548.000,4.02,
4547.000,3.96,
4546.000,3.91,
4545.000,3.85,
4544.000,3.81,
4543.000,3.76,
4542.000,3.72,
4541.000,3.68,
4540.000,3.64,
4539.000,3.6,
4538.000,3.56,
4537.000,3.53,
4536.000,3.5,
4535.000,3.47,
4534.000,3.44,
4533.000,3.42,
4532.000,3.39,
4531.000,3.37,
4530.000,3.35,
4529.000,3.33,
4528.000,3.32,
4527.000,3.3,
4526.000,3.29,
4525.000,3.28,
4524.000,3.27,
4523.000,3.26,
4522.000,3.25,
4521.000,3.25,
4520.000,3.24,
4519.000,3.24,
4518.000,3.25,
4517.000,3.25,
4516.000,3.25,
4515.000,3.26,
4514.000,3.27,
4513.000,3.28,
4512.000,3.29,
4511.000,3.3,
4510.000,3.31,
4509.000,3.32,
4508.000,3.34,
4507.000,3.36,
4506.000,3.38,
4505.000,3.41,
4504.000,3.43,
4503.000,3.46,
4502.000,3.49,
4501.000,3.52,
4500.000,3.55,
4499.000,3.58,
4498.000,3.62,
4497.000,3.65,
4496.000,3.7,
4495.000,3.74,
4494.000,3.79,
4493.000,3.84,
4492.000,3.89,
4491.000,3.94,
4490.000,3.99,
4489.000,4.05,
4488.000,4.11,
4487.000,4.17,
4486.000,4.23,
4485.000,4.3,
4484.000,4.36,
4483.000,4.43,
4482.000,4.5,
4481.000,4.58,
4480.000,4.65,
4479.000,4.73,
4478.000,4.8,
4477.000,4.88,
4476.000,4.96,
4475.000,5.05,
4474.000,5.13,
4473.000,5.22,
4472.000,5.31,
4471.000,5.4,
4470.000,5.49,
4469.000,5.58,
4468.000,5.68,
4467.000,5.77,
4466.000,5.87,
4465.000,5.96,
4464.000,6.06,
4463.000,6.16,
4462.000,6.26,
4461.000,6.36,
4460.000,6.46,
4459.000,6.56,
4458.000,6.67,
4457.000,6.77,
4456.000,6.88,
4455.000,6.98,
4454.000,7.09,
4453.000,7.2,
4452.000,7.31,
4451.000,7.42,
4450.000,7.53,
4449.000,7.64,
4448.000,7.75,
4447.000,7.87,
4446.000,7.98,
4445.000,8.09,
4444.000,8.2,
4443.000,8.32,
4442.000,8.43,
4441.000,8.55,
4440.000,8.67,
4439.000,8.79,
4438.000,8.91,
4437.000,9.03,
4436.000,9.15,
4435.000,9.28,
4434.000,9.4,
4433.000,9.53,
4432.000,9.65,
4431.000,9.77,
4430.000,9.9,
4429.000,10.03,
4428.000,10.16,
4427.000,10.28,
4426.000,10.41,
4425.000,10.54,
4424.000,10.67,
4423.000,10.8,
4422.000,10.93,
4421.000,11.07,
4420.000,11.2,
4419.000,11.33,
4418.000,11.47,
4417.000,11.6,
4416.000,11.73,
4415.000,11.86,
4414.000,11.99,
4413.000,12.12,
4412.000,12.25,
4411.000,12.38,
4410.000,12.51,
4409.000,12.63,
4408.000,12.75,
4407.000,12.87,
4406.000,12.98,
4405.000,13.1,
4404.000,13.2,
4403.000,13.31,
4402.000,13.4,
4401.000,13.49,
4400.000,13.57,
4399.000,13.65,
4398.000,13.71,
4397.000,13.77,
4396.000,13.81,
4395.000,13.84,
4394.000,13.87,
4393.000,13.88,
4392.000,13.88,
4391.000,13.87,
4390.000,13.85,
4389.000,13.81,
4388.000,13.75,
4387.000,13.69,
4386.000,13.61,
4385.000,13.51,
4384.000,13.4,
4383.000,13.28,
4382.000,13.15,
4381.000,13,
4380.000,12.84,
4379.000,12.68,
4378.000,12.5,
4377.000,12.31,
4376.000,12.12,
4375.000,11.91,
4374.000,11.71,
4373.000,11.5,
4372.000,11.28,
4371.000,11.07,
4370.000,10.85,
4369.000,10.63,
4368.000,10.41,
4367.000,10.19,
4366.000,9.97,
4365.000,9.75,
4364.000,9.53,
4363.000,9.32,
4362.000,9.11,
4361.000,8.9,
4360.000,8.69,
4359.000,8.48,
4358.000,8.27,
4357.000,8.07,
4356.000,7.87,
4355.000,7.68,
4354.000,7.49,
4353.000,7.3,
4352.000,7.11,
4351.000,6.93,
4350.000,6.75,
4349.000,6.57,
4348.000,6.4,
4347.000,6.24,
4346.000,6.08,
4345.000,5.93,
4344.000,5.78,
4343.000,5.64,
4342.000,5.5,
4341.000,5.36,
4340.000,5.23,
4339.000,5.11,
4338.000,4.99,
4337.000,4.87,
4336.000,4.76,
4335.000,4.65,
4334.000,4.55,
4333.000,4.45,
4332.000,4.35,
4331.000,4.25,
4330.000,4.16,
4329.000,4.08,
4328.000,4,
4327.000,3.92,
4326.000,3.84,
4325.000,3.77,
4324.000,3.7,
4323.000,3.63,
4322.000,3.57,
4321.000,3.51,
4320.000,3.45,
4319.000,3.39,
4318.000,3.34,
4317.000,3.29,
4316.000,3.24,
4315.000,3.19,
4314.000,3.15,
4313.000,3.11,
4312.000,3.08,
4311.000,3.04,
4310.000,3.01,
4309.000,2.97,
4308.000,2.94,
4307.000,2.91,
4306.000,2.89,
4305.000,2.86,
4304.000,2.84,
4303.000,2.82,
4302.000,2.8,
4301.000,2.78,
4300.000,2.76,
4299.000,2.74,
4298.000,2.73,
4297.000,2.71,
4296.000,2.7,
4295.000,2.69,
4294.000,2.68,
4293.000,2.67,
4292.000,2.67,
4291.000,2.66,
4290.000,2.66,
4289.000,2.65,
4288.000,2.65,
4287.000,2.65,
4286.000,2.65,
4285.000,2.65,
4284.000,2.65,
4283.000,2.66,
4282.000,2.67,
4281.000,2.68,
4280.000,2.68,
4279.000,2.69,
4278.000,2.71,
4277.000,2.72,
4276.000,2.73,
4275.000,2.74,
4274.000,2.76,
4273.000,2.78,
4272.000,2.8,
4271.000,2.82,
4270.000,2.84,
4269.000,2.87,
4268.000,2.9,
4267.000,2.93,
4266.000,2.96,
4265.000,2.99,
4264.000,3.02,
4263.000,3.06,
4262.000,3.1,
4261.000,3.14,
4260.000,3.18,
4259.000,3.22,
4258.000,3.27,
4257.000,3.32,
4256.000,3.37,
4255.000,3.42,
4254.000,3.47,
4253.000,3.53,
4252.000,3.59,
4251.000,3.65,
4250.000,3.72,
4249.000,3.78,
4248.000,3.85,
4247.000,3.92,
4246.000,3.99,
4245.000,4.07,
4244.000,4.15,
4243.000,4.23,
4242.000,4.31,
4241.000,4.39,
4240.000,4.47,
4239.000,4.56,
4238.000,4.65,
4237.000,4.74,
4236.000,4.83,
4235.000,4.92,
4234.000,5.01,
4233.000,5.1,
4232.000,5.19,
4231.000,5.29,
4230.000,5.38,
4229.000,5.48,
4228.000,5.57,
4227.000,5.67,
4226.000,5.76,
4225.000,5.86,
4224.000,5.96,
4223.000,6.06,
4222.000,6.16,
4221.000,6.26,
4220.000,6.36,
4219.000,6.46,
4218.000,6.56,
4217.000,6.66,
4216.000,6.76,
4215.000,6.87,
4214.000,6.98,
4213.000,7.09,
4212.000,7.2,
4211.000,7.31,
4210.000,7.43,
4209.000,7.55,
4208.000,7.66,
4207.000,7.78,
4206.000,7.9,
4205.000,8.03,
4204.000,8.15,
4203.000,8.27,
4202.000,8.4,
4201.000,8.52,
4200.000,8.65,
4199.000,8.78,
4198.000,8.91,
4197.000,9.03,
4196.000,9.16,
4195.000,9.29,
4194.000,9.42,
4193.000,9.55,
4192.000,9.68,
4191.000,9.82,
4190.000,9.95,
4189.000,10.08,
4188.000,10.21,
4187.000,10.35,
4186.000,10.48,
4185.000,10.61,
4184.000,10.75,
4183.000,10.88,
4182.000,11.02,
4181.000,11.15,
4180.000,11.29,
4179.000,11.42,
4178.000,11.56,
4177.000,11.69,
4176.000,11.82,
4175.000,11.95,
4174.000,12.08,
4173.000,12.2,
4172.000,12.32,
4171.000,12.44,
4170.000,12.56,
4169.000,12.67,
4168.000,12.77,
4167.000,12.86,
4166.000,12.95,
4165.000,13.03,
4164.000,13.1,
4163.000,13.16,
4162.000,13.21,
4161.000,13.25,
4160.000,13.28,
4159.000,13.29,
4158.000,13.29,
4157.000,13.27,
4156.000,13.24,
4155.000,13.19,
4154.000,13.13,
4153.000,13.05,
4152.000,12.96,
4151.000,12.85,
4150.000,12.72,
4149.000,12.58,
4148.000,12.42,
4147.000,12.26,
4146.000,12.07,
4145.000,11.88,
4144.000,11.68,
4143.000,11.46,
4142.000,11.24,
4141.000,11.01,
4140.000,10.77,
4139.000,10.52,
4138.000,10.28,
4137.000,10.02,
4136.000,9.77,
4135.000,9.51,
4134.000,9.25,
4133.000,9,
4132.000,8.74,
4131.000,8.49,
4130.000,8.24,
4129.000,8,
4128.000,7.77,
4127.000,7.53,
4126.000,7.31,
4125.000,7.09,
4124.000,6.88,
4123.000,6.67,
4122.000,6.47,
4121.000,6.27,
4120.000,6.09,
4119.000,5.9,
4118.000,5.73,
4117.000,5.56,
4116.000,5.39,
4115.000,5.24,
4114.000,5.09,
4113.000,4.94,
4112.000,4.8,
4111.000,4.67,
4110.000,4.54,
4109.000,4.41,
4108.000,4.29,
4107.000,4.18,
4106.000,4.08,
4105.000,3.97,
4104.000,3.88,
4103.000,3.78,
4102.000,3.69,
4101.000,3.6,
4100.000,3.52,
4099.000,3.44,
4098.000,3.36,
4097.000,3.29,
4096.000,3.22,
4095.000,3.16,
4094.000,3.1,
4093.000,3.04,
4092.000,2.98,
4091.000,2.93,
4090.000,2.88,
4089.000,2.83,
4088.000,2.78,
4087.000,2.73,
4086.000,2.69,
4085.000,2.65,
4084.000,2.61,
4083.000,2.58,
4082.000,2.55,
4081.000,2.51,
4080.000,2.48,
4079.000,2.45,
4078.000,2.43,
4077.000,2.4,
4076.000,2.38,
4075.000,2.36,
4074.000,2.33,
4073.000,2.31,
4072.000,2.29,
4071.000,2.28,
4070.000,2.26,
4069.000,2.25,
4068.000,2.23,
4067.000,2.22,
4066.000,2.2,
4065.000,2.19,
4064.000,2.18,
4063.000,2.18,
4062.000,2.17,
4061.000,2.16,
4060.000,2.16,
4059.000,2.15,
4058.000,2.15,
4057.000,2.14,
4056.000,2.14,
4055.000,2.14,
4054.000,2.14,
4053.000,2.15,
4052.000,2.15,
4051.000,2.15,
4050.000,2.16,
4049.000,2.16,
4048.000,2.17,
4047.000,2.18,
4046.000,2.19,
4045.000,2.2,
4044.000,2.21,
4043.000,2.22,
4042.000,2.24,
4041.000,2.26,
4040.000,2.27,
4039.000,2.29,
4038.000,2.31,
4037.000,2.33,
4036.000,2.36,
4035.000,2.38,
4034.000,2.41,
4033.000,2.43,
4032.000,2.46,
4031.000,2.5,
4030.000,2.53,
4029.000,2.56,
4028.000,2.6,
4027.000,2.64,
4026.000,2.68,
4025.000,2.72,
4024.000,2.77,
4023.000,2.82,
4022.000,2.87,
4021.000,2.92,
4020.000,2.97,
4019.000,3.03,
4018.000,3.08,
4017.000,3.14,
4016.000,3.2,
4015.000,3.26,
4014.000,3.33,
4013.000,3.4,
4012.000,3.47,
4011.000,3.54,
4010.000,3.61,
4009.000,3.69,
4008.000,3.77,
4007.000,3.85,
4006.000,3.93,
4005.000,4.01,
4004.000,4.1,
4003.000,4.19,
4002.000,4.28,
4001.000,4.37,
4000.000,4.46,
3999.000,4.56,
3998.000,4.66,
3997.000,4.76,
3996.000,4.86,
3995.000,4.96,
3994.000,5.06,
3993.000,5.17,
3992.000,5.27,
3991.000,5.38,
3990.000,5.48,
3989.000,5.59,
3988.000,5.7,
3987.000,5.81,
3986.000,5.91,
3985.000,6.02,
3984.000,6.13,
3983.000,6.24,
3982.000,6.35,
3981.000,6.46,
3980.000,6.57,
3979.000,6.68,
3978.000,6.79,
3977.000,6.91,
3976.000,7.02,
3975.000,7.14,
3974.000,7.25,
3973.000,7.37,
3972.000,7.49,
3971.000,7.61,
3970.000,7.73,
3969.000,7.85,
3968.000,7.97,
3967.000,8.1,
3966.000,8.22,
3965.000,8.34,
3964.000,8.46,
3963.000,8.59,
3962.000,8.71,
3961.000,8.84,
3960.000,8.96,
3959.000,9.09,
3958.000,9.21,
3957.000,9.34,
3956.000,9.46,
3955.000,9.58,
3954.000,9.71,
3953.000,9.83,
3952.000,9.96,
3951.000,10.09,
3950.000,10.22,
3949.000,10.36,
3948.000,10.51,
3947.000,10.66,
3946.000,10.8,
3945.000,10.94,
3944.000,11.07,
3943.000,11.21,
3942.000,11.35,
3941.000,11.5,
3940.000,11.64,
3939.000,11.78,
3938.000,11.9,
3937.000,12.02,
3936.000,12.13,
3935.000,12.23,
3934.000,12.32,
3933.000,12.4,
3932.000,12.49,
3931.000,12.57,
3930.000,12.64,
3929.000,12.69,
3928.000,12.73,
3927.000,12.73,
3926.000,12.71,
3925.000,12.68,
3924.000,12.65,
3923.000,12.59,
3922.000,12.52,
3921.000,12.43,
3920.000,12.31,
3919.000,12.16,
3918.000,11.99,
3917.000,11.8,
3916.000,11.6,
3915.000,11.38,
3914.000,11.15,
3913.000,10.91,
3912.000,10.65,
3911.000,10.38,
3910.000,10.11,
3909.000,9.85,
3908.000,9.58,
3907.000,9.32,
3906.000,9.06,
3905.000,8.79,
3904.000,8.51,
3903.000,8.23,
3902.000,7.95,
3901.000,7.68,
3900.000,7.4,
3899.000,7.13,
3898.000,6.87,
3897.000,6.62,
3896.000,6.39,
3895.000,6.17,
3894.000,5.96,
3893.000,5.76,
3892.000,5.56,
3891.000,5.36,
3890.000,5.18,
3889.000,5,
3888.000,4.84,
3887.000,4.68,
3886.000,4.53,
3885.000,4.38,
3884.000,4.23,
3883.000,4.1,
3882.000,3.97,
3881.000,3.85,
3880.000,3.73,
3879.000,3.61,
3878.000,3.51,
3877.000,3.41,
3876.000,3.32,
3875.000,3.23,
3874.000,3.15,
3873.000,3.07,
3872.000,3,
3871.000,2.93,
3870.000,2.86,
3869.000,2.79,
3868.000,2.73,
3867.000,2.66,
3866.000,2.61,
3865.000,2.55,
3864.000,2.49,
3863.000,2.44,
3862.000,2.39,
3861.000,2.34,
3860.000,2.3,
3859.000,2.27,
3858.000,2.24,
3857.000,2.22,
3856.000,2.19,
3855.000,2.16,
3854.000,2.13,
3853.000,2.1,
3852.000,2.06,
3851.000,2.03,
3850.000,2,
3849.000,1.97,
3848.000,1.94,
3847.000,1.92,
3846.000,1.89,
3845.000,1.88,
3844.000,1.86,
3843.000,1.85,
3842.000,1.84,
3841.000,1.82,
3840.000,1.81,
3839.000,1.8,
3838.000,1.79,
3837.000,1.79,
3836.000,1.78,
3835.000,1.77,
3834.000,1.76,
3833.000,1.75,
3832.000,1.74,
3831.000,1.73,
3830.000,1.73,
3829.000,1.72,
3828.000,1.71,
3827.000,1.71,
3826.000,1.71,
3825.000,1.72,
3824.000,1.72,
3823.000,1.72,
3822.000,1.72,
3821.000,1.73,
3820.000,1.74,
3819.000,1.75,
3818.000,1.75,
3817.000,1.76,
3816.000,1.77,
3815.000,1.77,
3814.000,1.78,
3813.000,1.79,
3812.000,1.8,
3811.000,1.81,
3810.000,1.83,
3809.000,1.84,
3808.000,1.86,
3807.000,1.88,
3806.000,1.91,
3805.000,1.93,
3804.000,1.95,
3803.000,1.98,
3802.000,2.01,
3801.000,2.04,
3800.000,2.07,
3799.000,2.09,
3798.000,2.12,
3797.000,2.15,
3796.000,2.18,
3795.000,2.21,
3794.000,2.25,
3793.000,2.29,
3792.000,2.33,
3791.000,2.37,
3790.000,2.42,
3789.000,2.46,
3788.000,2.51,
3787.000,2.57,
3786.000,2.63,
3785.000,2.69,
3784.000,2.76,
3783.000,2.82,
3782.000,2.89,
3781.000,2.96,
3780.000,3.03,
3779.000,3.1,
3778.000,3.17,
3777.000,3.25,
3776.000,3.33,
3775.000,3.41,
3774.000,3.5,
3773.000,3.59,
3772.000,3.68,
3771.000,3.78,
3770.000,3.88,
3769.000,3.97,
3768.000,4.07,
3767.000,4.16,
3766.000,4.26,
3765.000,4.36,
3764.000,4.46,
3763.000,4.56,
3762.000,4.67,
3761.000,4.78,
3760.000,4.89,
3759.000,5.01,
3758.000,5.13,
3757.000,5.26,
3756.000,5.39,
3755.000,5.53,
3754.000,5.67,
3753.000,5.82,
3752.000,5.97,
3751.000,6.13,
3750.000,6.3,
3749.000,6.46,
3748.000,6.61,
3747.000,6.74,
3746.000,6.87,
3745.000,7.01,
3744.000,7.15,
3743.000,7.29,
3742.000,7.41,
3741.000,7.52,
3740.000,7.63,
3739.000,7.74,
3738.000,7.84,
3737.000,7.96,
3736.000,8.09,
3735.000,8.23,
3734.000,8.37,
3733.000,8.51,
3732.000,8.64,
3731.000,8.79,
3730.000,8.95,
3729.000,9.09,
3728.000,9.21,
3727.000,9.29,
3726.000,9.38,
3725.000,9.49,
3724.000,9.63,
3723.000,9.8,
3722.000,9.97,
3721.000,10.15,
3720.000,10.31,
3719.000,10.48,
3718.000,10.64,
3717.000,10.8,
3716.000,10.95,
3715.000,11.08,
3714.000,11.18,
3713.000,11.3,
3712.000,11.43,
3711.000,11.6,
3710.000,11.78,
3709.000,11.93,
3708.000,12.05,
3707.000,12.13,
3706.000,12.17,
3705.000,12.18,
3704.000,12.17,
3703.000,12.14,
3702.000,12.12,
3701.000,12.09,
3700.000,12.06,
3699.000,12,
3698.000,11.91,
3697.000,11.78,
3696.000,11.64,
3695.000,11.47,
3694.000,11.29,
3693.000,11.1,
3692.000,10.88,
3691.000,10.64,
3690.000,10.39,
3689.000,10.11,
3688.000,9.81,
3687.000,9.52,
3686.000,9.23,
3685.000,8.94,
3684.000,8.65,
3683.000,8.35,
3682.000,8.05,
3681.000,7.77,
3680.000,7.5,
3679.000,7.25,
3678.000,7,
3677.000,6.75,
3676.000,6.48,
3675.000,6.21,
3674.000,5.95,
3673.000,5.71,
3672.000,5.49,
3671.000,5.28,
3670.000,5.05,
3669.000,4.83,
3668.000,4.61,
3667.000,4.42,
3666.000,4.24,
3665.000,4.08,
3664.000,3.93,
3663.000,3.78,
3662.000,3.64,
3661.000,3.52,
3660.000,3.4,
3659.000,3.29,
3658.000,3.19,
3657.000,3.09,
3656.000,2.99,
3655.000,2.9,
3654.000,2.81,
3653.000,2.74,
3652.000,2.67,
3651.000,2.6,
3650.000,2.53,
3649.000,2.46,
3648.000,2.39,
3647.000,2.32,
3646.000,2.26,
3645.000,2.2,
3644.000,2.14,
3643.000,2.09,
3642.000,2.04,
3641.000,1.99,
3640.000,1.95,
3639.000,1.91,
3638.000,1.87,
3637.000,1.84,
3636.000,1.8,
3635.000,1.77,
3634.000,1.74,
3633.000,1.71,
3632.000,1.69,
3631.000,1.66,
3630.000,1.64,
3629.000,1.61,
3628.000,1.59,
3627.000,1.57,
3626.000,1.54,
3625.000,1.52,
3624.000,1.49,
3623.000,1.47,
3622.000,1.45,
3621.000,1.44,
3620.000,1.42,
3619.000,1.41,
3618.000,1.4,
3617.000,1.39,
3616.000,1.38,
3615.000,1.37,
3614.000,1.36,
3613.000,1.35,
3612.000,1.34,
3611.000,1.33,
3610.000,1.32,
3609.000,1.31,
3608.000,1.31,
3607.000,1.3,
3606.000,1.29,
3605.000,1.28,
3604.000,1.28,
3603.000,1.27,
3602.000,1.27,
3601.000,1.26,
3600.000,1.26,
3599.000,1.26,
3598.000,1.26,
3597.000,1.25,
3596.000,1.25,
3595.000,1.25,
3594.000,1.25,
3593.000,1.25,
3592.000,1.26,
3591.000,1.26,
3590.000,1.27,
3589.000,1.27,
3588.000,1.27,
3587.000,1.28,
3586.000,1.28,
3585.000,1.29,
3584.000,1.29,
3583.000,1.3,
3582.000,1.3,
3581.000,1.31,
3580.000,1.32,
3579.000,1.33,
3578.000,1.34,
3577.000,1.35,
3576.000,1.36,
3575.000,1.38,
3574.000,1.39,
3573.000,1.41,
3572.000,1.43,
3571.000,1.45,
3570.000,1.47,
3569.000,1.49,
3568.000,1.51,
3567.000,1.53,
3566.000,1.56,
3565.000,1.58,
3564.000,1.61,
3563.000,1.63,
3562.000,1.66,
3561.000,1.69,
3560.000,1.72,
3559.000,1.76,
3558.000,1.79,
3557.000,1.83,
3556.000,1.87,
3555.000,1.91,
3554.000,1.95,
3553.000,2,
3552.000,2.05,
3551.000,2.1,
3550.000,2.15,
3549.000,2.2,
3548.000,2.26,
3547.000,2.31,
3546.000,2.37,
3545.000,2.43,
3544.000,2.49,
3543.000,2.55,
3542.000,2.61,
3541.000,2.68,
3540.000,2.74,
3539.000,2.81,
3538.000,2.88,
3537.000,2.95,
3536.000,3.02,
3535.000,3.09,
3534.000,3.17,
3533.000,3.24,
3532.000,3.32,
3531.000,3.39,
3530.000,3.47,
3529.000,3.55,
3528.000,3.63,
3527.000,3.71,
3526.000,3.79,
3525.000,3.87,
3524.000,3.95,
3523.000,4.04,
3522.000,4.12,
3521.000,4.2,
3520.000,4.29,
3519.000,4.37,
3518.000,4.45,
3517.000,4.53,
3516.000,4.62,
3515.000,4.71,
3514.000,4.8,
3513.000,4.89,
3512.000,4.98,
3511.000,5.08,
3510.000,5.17,
3509.000,5.27,
3508.000,5.36,
3507.000,5.46,
3506.000,5.55,
3505.000,5.65,
3504.000,5.75,
3503.000,5.85,
3502.000,5.96,
3501.000,6.07,
3500.000,6.17,
3499.000,6.28,
3498.000,6.38,
3497.000,6.49,
3496.000,6.59,
3495.000,6.7,
3494.000,6.81,
3493.000,6.92,
3492.000,7.02,
3491.000,7.13,
3490.000,7.24,
3489.000,7.35,
3488.000,7.46,
3487.000,7.57,
3486.000,7.67,
3485.000,7.77,
3484.000,7.87,
3483.000,7.96,
3482.000,8.05,
3481.000,8.14,
3480.000,8.23,
3479.000,8.31,
3478.000,8.37,
3477.000,8.43,
3476.000,8.48,
3475.000,8.52,
3474.000,8.55,
3473.000,8.57,
3472.000,8.57,
3471.000,8.56,
3470.000,8.54,
3469.000,8.5,
3468.000,8.44,
3467.000,8.37,
3466.000,8.28,
3465.000,8.17,
3464.000,8.04,
3463.000,7.91,
3462.000,7.75,
3461.000,7.59,
3460.000,7.41,
3459.000,7.22,
3458.000,7.03,
3457.000,6.83,
3456.000,6.62,
3455.000,6.4,
3454.000,6.19,
3453.000,5.98,
3452.000,5.77,
3451.000,5.56,
3450.000,5.35,
3449.000,5.15,
3448.000,4.95,
3447.000,4.75,
3446.000,4.56,
3445.000,4.38,
3444.000,4.21,
3443.000,4.04,
3442.000,3.88,
3441.000,3.72,
3440.000,3.58,
3439.000,3.43,
3438.000,3.3,
3437.000,3.17,
3436.000,3.05,
3435.000,2.93,
3434.000,2.82,
3433.000,2.71,
3432.000,2.61,
3431.000,2.51,
3430.000,2.42,
3429.000,2.34,
3428.000,2.26,
3427.000,2.18,
3426.000,2.11,
3425.000,2.04,
3424.000,1.98,
3423.000,1.92,
3422.000,1.86,
3421.000,1.8,
3420.000,1.75,
3419.000,1.7,
3418.000,1.66,
3417.000,1.62,
3416.000,1.58,
3415.000,1.54,
3414.000,1.51,
3413.000,1.48,
3412.000,1.45,
3411.000,1.42,
3410.000,1.39,
3409.000,1.37,
3408.000,1.35,
3407.000,1.33,
3406.000,1.31,
3405.000,1.29,
3404.000,1.27,
3403.000,1.26,
3402.000,1.25,
3401.000,1.23,
3400.000,1.22,
3399.000,1.21,
3398.000,1.2,
3397.000,1.19,
3396.000,1.17,
3395.000,1.16,
3394.000,1.15,
3393.000,1.14,
3392.000,1.12,
3391.000,1.11,
3390.000,1.1,
3389.000,1.09,
3388.000,1.08,
3387.000,1.07,
3386.000,1.06,
3385.000,1.05,
3384.000,1.04,
3383.000,1.04,
3382.000,1.03,
3381.000,1.02,
3380.000,1.01,
3379.000,1.01,
3378.000,1,
3377.000,1,
3376.000,0.99,
3375.000,0.99,
3374.000,0.98,
3373.000,0.98,
3372.000,0.98,
3371.000,0.98,
3370.000,0.97,
3369.000,0.97,
3368.000,0.97,
3367.000,0.97,
3366.000,0.97,
3365.000,0.97,
3364.000,0.96,
3363.000,0.97,
3362.000,0.97,
3361.000,0.97,
3360.000,0.97,
3359.000,0.98,
3358.000,0.98,
3357.000,0.98,
3356.000,0.99,
3355.000,0.99,
3354.000,1,
3353.000,1,
3352.000,1.01,
3351.000,1.01,
3350.000,1.02,
3349.000,1.03,
3348.000,1.04,
3347.000,1.05,
3346.000,1.06,
3345.000,1.07,
3344.000,1.08,
3343.000,1.09,
3342.000,1.11,
3341.000,1.12,
3340.000,1.14,
3339.000,1.15,
3338.000,1.17,
3337.000,1.19,
3336.000,1.21,
3335.000,1.23,
3334.000,1.25,
3333.000,1.27,
3332.000,1.3,
3331.000,1.32,
3330.000,1.35,
3329.000,1.38,
3328.000,1.41,
3327.000,1.44,
3326.000,1.48,
3325.000,1.51,
3324.000,1.55,
3323.000,1.59,
3322.000,1.63,
3321.000,1.67,
3320.000,1.72,
3319.000,1.77,
3318.000,1.82,
3317.000,1.87,
3316.000,1.93,
3315.000,1.99,
3314.000,2.05,
3313.000,2.11,
3312.000,2.18,
3311.000,2.24,
3310.000,2.31,
3309.000,2.38,
3308.000,2.46,
3307.000,2.53,
3306.000,2.61,
3305.000,2.69,
3304.000,2.77,
3303.000,2.85,
3302.000,2.94,
3301.000,3.02,
3300.000,3.11,
3299.000,3.2,
3298.000,3.29,
3297.000,3.38,
3296.000,3.47,
3295.000,3.57,
3294.000,3.66,
3293.000,3.76,
3292.000,3.85,
3291.000,3.95,
3290.000,4.05,
3289.000,4.14,
3288.000,4.24,
3287.000,4.33,
3286.000,4.43,
3285.000,4.53,
3284.000,4.63,
3283.000,4.74,
3282.000,4.84,
3281.000,4.94,
3280.000,5.05,
3279.000,5.15,
3278.000,5.26,
3277.000,5.36,
3276.000,5.47,
3275.000,5.57,
3274.000,5.68,
3273.000,5.79,
3272.000,5.9,
3271.000,6.02,
3270.000,6.13,
3269.000,6.24,
3268.000,6.35,
3267.000,6.46,
3266.000,6.58,
3265.000,6.69,
3264.000,6.81,
3263.000,6.93,
3262.000,7.04,
3261.000,7.16,
3260.000,7.27,
3259.000,7.39,
3258.000,7.5,
3257.000,7.61,
3256.000,7.72,
3255.000,7.82,
3254.000,7.92,
3253.000,8.01,
3252.000,8.09,
3251.000,8.17,
3250.000,8.24,
3249.000,8.29,
3248.000,8.34,
3247.000,8.36,
3246.000,8.38,
3245.000,8.38,
3244.000,8.36,
3243.000,8.32,
3242.000,8.27,
3241.000,8.19,
3240.000,8.1,
3239.000,7.98,
3238.000,7.85,
3237.000,7.7,
3236.000,7.53,
3235.000,7.35,
3234.000,7.16,
3233.000,6.95,
3232.000,6.74,
3231.000,6.52,
3230.000,6.3,
3229.000,6.07,
3228.000,5.85,
3227.000,5.62,
3226.000,5.4,
3225.000,5.18,
3224.000,4.96,
3223.000,4.75,
3222.000,4.55,
3221.000,4.35,
3220.000,4.16,
3219.000,3.98,
3218.000,3.81,
3217.000,3.64,
3216.000,3.48,
3215.000,3.33,
3214.000,3.19,
3213.000,3.05,
3212.000,2.92,
3211.000,2.8,
3210.000,2.68,
3209.000,2.57,
3208.000,2.47,
3207.000,2.37,
3206.000,2.28,
3205.000,2.2,
3204.000,2.11,
3203.000,2.04,
3202.000,1.96,
3201.000,1.9,
3200.000,1.83,
3199.000,1.77,
3198.000,1.71,
3197.000,1.66,
3196.000,1.61,
3195.000,1.56,
3194.000,1.51,
3193.000,1.47,
3192.000,1.43,
3191.000,1.39,
3190.000,1.35,
3189.000,1.32,
3188.000,1.28,
3187.000,1.25,
3186.000,1.22,
3185.000,1.2,
3184.000,1.17,
3183.000,1.15,
3182.000,1.13,
3181.000,1.1,
3180.000,1.08,
3179.000,1.06,
3178.000,1.04,
3177.000,1.02,
3176.000,1,
3175.000,0.99,
3174.000,0.97,
3173.000,0.96,
3172.000,0.94,
3171.000,0.93,
3170.000,0.91,
3169.000,0.9,
3168.000,0.89,
3167.000,0.88,
3166.000,0.87,
3165.000,0.86,
3164.000,0.85,
3163.000,0.84,
3162.000,0.83,
3161.000,0.83,
3160.000,0.82,
3159.000,0.81,
3158.000,0.81,
3157.000,0.8,
3156.000,0.8,
3155.000,0.79,
3154.000,0.79,
3153.000,0.78,
3152.000,0.78,
3151.000,0.77,
3150.000,0.77,
3149.000,0.77,
3148.000,0.77,
3147.000,0.77,
3146.000,0.77,
3145.000,0.76,
3144.000,0.76,
3143.000,0.76,
3142.000,0.77,
3141.000,0.77,
3140.000,0.77,
3139.000,0.77,
3138.000,0.77,
3137.000,0.77,
3136.000,0.77,
3135.000,0.78,
3134.000,0.78,
3133.000,0.79,
3132.000,0.79,
3131.000,0.8,
3130.000,0.8,
3129.000,0.81,
3128.000,0.81,
3127.000,0.82,
3126.000,0.83,
3125.000,0.84,
3124.000,0.85,
3123.000,0.86,
3122.000,0.87,
3121.000,0.88,
3120.000,0.9,
3119.000,0.91,
3118.000,0.92,
3117.000,0.94,
3116.000,0.96,
3115.000,0.97,
3114.000,0.99,
3113.000,1.01,
3112.000,1.03,
3111.000,1.06,
3110.000,1.08,
3109.000,1.11,
3108.000,1.13,
3107.000,1.17,
3106.000,1.2,
3105.000,1.23,
3104.000,1.27,
3103.000,1.31,
3102.000,1.35,
3101.000,1.39,
3100.000,1.44,
3099.000,1.49,
3098.000,1.54,
3097.000,1.6,
3096.000,1.66,
3095.000,1.72,
3094.000,1.78,
3093.000,1.85,
3092.000,1.92,
3091.000,1.99,
3090.000,2.07,
3089.000,2.15,
3088.000,2.23,
3087.000,2.31,
3086.000,2.4,
3085.000,2.48,
3084.000,2.57,
3083.000,2.66,
3082.000,2.75,
3081.000,2.85,
3080.000,2.94,
3079.000,3.03,
3078.000,3.13,
3077.000,3.23,
3076.000,3.32,
3075.000,3.42,
3074.000,3.52,
3073.000,3.61,
3072.000,3.71,
3071.000,3.81,
3070.000,3.9,
3069.000,4,
3068.000,4.1,
3067.000,4.19,
3066.000,4.29,
3065.000,4.39,
3064.000,4.48,
3063.000,4.58,
3062.000,4.68,
3061.000,4.78,
3060.000,4.87,
3059.000,4.97,
3058.000,5.07,
3057.000,5.18,
3056.000,5.28,
3055.000,5.39,
3054.000,5.49,
3053.000,5.6,
3052.000,5.71,
3051.000,5.82,
3050.000,5.93,
3049.000,6.04,
3048.000,6.14,
3047.000,6.24,
3046.000,6.33,
3045.000,6.41,
3044.000,6.48,
3043.000,6.53,
3042.000,6.56,
3041.000,6.57,
3040.000,6.55,
3039.000,6.5,
3038.000,6.42,
3037.000,6.31,
3036.000,6.18,
3035.000,6.01,
3034.000,5.83,
3033.000,5.62,
3032.000,5.4,
3031.000,5.16,
3030.000,4.92,
3029.000,4.68,
3028.000,4.43,
3027.000,4.19,
3026.000,3.95,
3025.000,3.73,
3024.000,3.5,
3023.000,3.29,
3022.000,3.09,
3021.000,2.9,
3020.000,2.72,
3019.000,2.55,
3018.000,2.39,
3017.000,2.24,
3016.000,2.1,
3015.000,1.97,
3014.000,1.85,
3013.000,1.74,
3012.000,1.63,
3011.000,1.53,
3010.000,1.45,
3009.000,1.36,
3008.000,1.29,
3007.000,1.22,
3006.000,1.15,
3005.000,1.1,
3004.000,1.04,
3003.000,0.99,
3002.000,0.94,
3001.000,0.9,
3000.000,0.86,
2999.000,0.82,
2998.000,0.79,
2997.000,0.76,
2996.000,0.73,
2995.000,0.7,
2994.000,0.68,
2993.000,0.66,
2992.000,0.64,
2991.000,0.62,
2990.000,0.6,
2989.000,0.58,
2988.000,0.57,
2987.000,0.56,
2986.000,0.55,
2985.000,0.53,
2984.000,0.52,
2983.000,0.51,
2982.000,0.5,
2981.000,0.49,
2980.000,0.48,
2979.000,0.48,
2978.000,0.47,
2977.000,0.46,
2976.000,0.44,
2975.000,0.43,
2974.000,0.42,
2973.000,0.4,
2972.000,0.38,
2971.000,0.35,
2970.000,0.33,
2969.000,0.3,
2968.000,0.27,
2967.000,0.24,
2966.000,0.22,
2965.000,0.19,
2964.000,0.16,
2963.000,0.14,
2962.000,0.12,
2961.000,0.11,
2960.000,0.1,
2959.000,0.08,
2958.000,0.07,
2957.000,0.07,
2956.000,0.06,
2955.000,0.05,
2954.000,0.05,
2953.000,0.05,
2952.000,0.04,
2951.000,0.04,
2950.000,0.03,
2949.000,0.03,
2948.000,0.03,
2947.000,0.02,
2946.000,0.02,
2945.000,0.02,
2944.000,0.02,
2943.000,0.02,
2942.000,0.02,
2941.000,0.01,
2940.000,0.01,
2939.000,0.01,
2938.000,0.01,
2937.000,0.01,
2936.000,0.01,
2935.000,0.01,
2934.000,0.01,
2933.000,0.01,
2932.000,0.02,
2931.000,0.02,
2930.000,0.02,
2929.000,0.03,
2928.000,0.03,
2927.000,0.04,
2926.000,0.04,
2925.000,0.05,
2924.000,0.06,
2923.000,0.07,
2922.000,0.08,
2921.000,0.09,
2920.000,0.1,
2919.000,0.12,
2918.000,0.13,
2917.000,0.15,
2916.000,0.17,
2915.000,0.19,
2914.000,0.21,
2913.000,0.23,
2912.000,0.24,
2911.000,0.26,
2910.000,0.27,
2909.000,0.28,
2908.000,0.28,
2907.000,0.29,
2906.000,0.3,
2905.000,0.3,
2904.000,0.31,
2903.000,0.31,
2902.000,0.32,
2901.000,0.32,
2900.000,0.33,
2899.000,0.33,
2898.000,0.33,
2897.000,0.33,
2896.000,0.34,
2895.000,0.34,
2894.000,0.33,
2893.000,0.33,
2892.000,0.33,
2891.000,0.33,
2890.000,0.33,
2889.000,0.33,
2888.000,0.32,
2887.000,0.32,
2886.000,0.32,
2885.000,0.31,
2884.000,0.31,
2883.000,0.3,
2882.000,0.3,
2881.000,0.29,
2880.000,0.28,
2879.000,0.27,
2878.000,0.26,
2877.000,0.25,
2876.000,0.24,
2875.000,0.23,
2874.000,0.22,
2873.000,0.21,
2872.000,0.19,
2871.000,0.18,
2870.000,0.16,
2869.000,0.14,
2868.000,0.13,
2867.000,0.12,
2866.000,0.11,
2865.000,0.1,
2864.000,0.09,
2863.000,0.09,
2862.000,0.09,
2861.000,0.09,
2860.000,0.1,
2859.000,0.11,
2858.000,0.12,
2857.000,0.14,
2856.000,0.16,
2855.000,0.18,
2854.000,0.21,
2853.000,0.24,
2852.000,0.27,
2851.000,0.29,
2850.000,0.32,
2849.000,0.35,
2848.000,0.37,
2847.000,0.38,
2846.000,0.39,
2845.000,0.4,
2844.000,0.41,
2843.000,0.41,
2842.000,0.42,
2841.000,0.42,
2840.000,0.42,
2839.000,0.42,
2838.000,0.42,
2837.000,0.43,
2836.000,0.43,
2835.000,0.43,
2834.000,0.43,
2833.000,0.43,
2832.000,0.44,
2831.000,0.44,
2830.000,0.44,
2829.000,0.45,
2828.000,0.45,
2827.000,0.46,
2826.000,0.46,
2825.000,0.47,
2824.000,0.47,
2823.000,0.48,
2822.000,0.49,
2821.000,0.5,
2820.000,0.51,
2819.000,0.52,
2818.000,0.54,
2817.000,0.55,
2816.000,0.56,
2815.000,0.58,
2814.000,0.6,
2813.000,0.62,
2812.000,0.64,
2811.000,0.66,
2810.000,0.68,
2809.000,0.71,
2808.000,0.74,
2807.000,0.77,
2806.000,0.8,
2805.000,0.83,
2804.000,0.87,
2803.000,0.91,
2802.000,0.95,
2801.000,0.99,
2800.000,1.04,
2799.000,1.08,
2798.000,1.13,
2797.000,1.18,
2796.000,1.23,
2795.000,1.28,
2794.000,1.34,
2793.000,1.4,
2792.000,1.47,
2791.000,1.54,
2790.000,1.62,
2789.000,1.71,
2788.000,1.8,
2787.000,1.89,
2786.000,1.99,
2785.000,2.09,
2784.000,2.19,
2783.000,2.29,
2782.000,2.39,
2781.000,2.49,
2780.000,2.59,
2779.000,2.69,
2778.000,2.79,
2777.000,2.89,
2776.000,3,
2775.000,3.1,
2774.000,3.21,
2773.000,3.32,
2772.000,3.43,
2771.000,3.54,
2770.000,3.65,
2769.000,3.76,
2768.000,3.87,
2767.000,3.98,
2766.000,4.09,
2765.000,4.2,
2764.000,4.31,
2763.000,4.42,
2762.000,4.54,
2761.000,4.66,
2760.000,4.79,
2759.000,4.92,
2758.000,5.06,
2757.000,5.21,
2756.000,5.36,
2755.000,5.51,
2754.000,5.66,
2753.000,5.79,
2752.000,5.91,
2751.000,6.01,
2750.000,6.09,
2749.000,6.15,
2748.000,6.18,
2747.000,6.18,
2746.000,6.15,
2745.000,6.09,
2744.000,5.99,
2743.000,5.86,
2742.000,5.71,
2741.000,5.53,
2740.000,5.33,
2739.000,5.11,
2738.000,4.88,
2737.000,4.65,
2736.000,4.41,
2735.000,4.18,
2734.000,3.95,
2733.000,3.72,
2732.000,3.51,
2731.000,3.3,
2730.000,3.11,
2729.000,2.93,
2728.000,2.75,
2727.000,2.59,
2726.000,2.43,
2725.000,2.29,
2724.000,2.15,
2723.000,2.02,
2722.000,1.9,
2721.000,1.79,
2720.000,1.69,
2719.000,1.6,
2718.000,1.51,
2717.000,1.43,
2716.000,1.36,
2715.000,1.29,
2714.000,1.22,
2713.000,1.17,
2712.000,1.11,
2711.000,1.06,
2710.000,1.01,
2709.000,0.97,
2708.000,0.93,
2707.000,0.9,
2706.000,0.86,
2705.000,0.83,
2704.000,0.8,
2703.000,0.77,
2702.000,0.75,
2701.000,0.72,
2700.000,0.7,
2699.000,0.68,
2698.000,0.66,
2697.000,0.64,
2696.000,0.62,
2695.000,0.61,
2694.000,0.59,
2693.000,0.58,
2692.000,0.56,
2691.000,0.55,
2690.000,0.54,
2689.000,0.53,
2688.000,0.52,
2687.000,0.5,
2686.000,0.49,
2685.000,0.48,
2684.000,0.47,
2683.000,0.46,
2682.000,0.46,
2681.000,0.45,
2680.000,0.44,
2679.000,0.44,
2678.000,0.43,
2677.000,0.42,
2676.000,0.42,
2675.000,0.41,
2674.000,0.41,
2673.000,0.4,
2672.000,0.4,
2671.000,0.4,
2670.000,0.39,
2669.000,0.39,
2668.000,0.39,
2667.000,0.39,
2666.000,0.39,
2665.000,0.38,
2664.000,0.38,
2663.000,0.38,
2662.000,0.38,
2661.000,0.38,
2660.000,0.37,
2659.000,0.37,
2658.000,0.37,
2657.000,0.37,
2656.000,0.37,
2655.000,0.37,
2654.000,0.37,
2653.000,0.36,
2652.000,0.36,
2651.000,0.36,
2650.000,0.36,
2649.000,0.36,
2648.000,0.36,
2647.000,0.36,
2646.000,0.36,
2645.000,0.36,
2644.000,0.36,
2643.000,0.36,
2642.000,0.36,
2641.000,0.36,
2640.000,0.37,
2639.000,0.37,
2638.000,0.37,
2637.000,0.37,
2636.000,0.38,
2635.000,0.38,
2634.000,0.38,
2633.000,0.38,
2632.000,0.39,
2631.000,0.39,
2630.000,0.39,
2629.000,0.4,
2628.000,0.4,
2627.000,0.4,
2626.000,0.41,
2625.000,0.42,
2624.000,0.42,
2623.000,0.43,
2622.000,0.43,
2621.000,0.44,
2620.000,0.45,
2619.000,0.45,
2618.000,0.46,
2617.000,0.47,
2616.000,0.48,
2615.000,0.49,
2614.000,0.5,
2613.000,0.5,
2612.000,0.51,
2611.000,0.52,
2610.000,0.53,
2609.000,0.55,
2608.000,0.56,
2607.000,0.57,
2606.000,0.59,
2605.000,0.61,
2604.000,0.62,
2603.000,0.64,
2602.000,0.66,
2601.000,0.69,
2600.000,0.71,
2599.000,0.74,
2598.000,0.77,
2597.000,0.8,
2596.000,0.83,
2595.000,0.87,
2594.000,0.9,
2593.000,0.94,
2592.000,0.99,
2591.000,1.03,
2590.000,1.08,
2589.000,1.13,
2588.000,1.18,
2587.000,1.23,
2586.000,1.29,
2585.000,1.35,
2584.000,1.41,
2583.000,1.47,
2582.000,1.54,
2581.000,1.6,
2580.000,1.67,
2579.000,1.74,
2578.000,1.81,
2577.000,1.89,
2576.000,1.96,
2575.000,2.03,
2574.000,2.1,
2573.000,2.18,
2572.000,2.25,
2571.000,2.33,
2570.000,2.4,
2569.000,2.48,
2568.000,2.55,
2567.000,2.63,
2566.000,2.71,
2565.000,2.79,
2564.000,2.88,
2563.000,2.97,
2562.000,3.06,
2561.000,3.15,
2560.000,3.24,
2559.000,3.34,
2558.000,3.43,
2557.000,3.53,
2556.000,3.63,
2555.000,3.74,
2554.000,3.84,
2553.000,3.95,
2552.000,4.05,
2551.000,4.16,
2550.000,4.26,
2549.000,4.37,
2548.000,4.47,
2547.000,4.58,
2546.000,4.68,
2545.000,4.78,
2544.000,4.88,
2543.000,4.98,
2542.000,5.07,
2541.000,5.16,
2540.000,5.25,
2539.000,5.32,
2538.000,5.39,
2537.000,5.44,
2536.000,5.48,
2535.000,5.5,
2534.000,5.5,
2533.000,5.48,
2532.000,5.44,
2531.000,5.37,
2530.000,5.29,
2529.000,5.18,
2528.000,5.06,
2527.000,4.91,
2526.000,4.75,
2525.000,4.58,
2524.000,4.39,
2523.000,4.2,
2522.000,4.01,
2521.000,3.81,
2520.000,3.62,
2519.000,3.43,
2518.000,3.24,
2517.000,3.06,
2516.000,2.88,
2515.000,2.71,
2514.000,2.55,
2513.000,2.39,
2512.000,2.25,
2511.000,2.11,
2510.000,1.98,
2509.000,1.86,
2508.000,1.75,
2507.000,1.64,
2506.000,1.54,
2505.000,1.45,
2504.000,1.37,
2503.000,1.29,
2502.000,1.22,
2501.000,1.15,
2500.000,1.09,
2499.000,1.04,
2498.000,0.99,
2497.000,0.94,
2496.000,0.89,
2495.000,0.85,
2494.000,0.81,
2493.000,0.78,
2492.000,0.75,
2491.000,0.72,
2490.000,0.69,
2489.000,0.66,
2488.000,0.64,
2487.000,0.62,
2486.000,0.6,
2485.000,0.58,
2484.000,0.56,
2483.000,0.54,
2482.000,0.52,
2481.000,0.51,
2480.000,0.49,
2479.000,0.48,
2478.000,0.47,
2477.000,0.46,
2476.000,0.44,
2475.000,0.43,
2474.000,0.42,
2473.000,0.41,
2472.000,0.4,
2471.000,0.39,
2470.000,0.39,
2469.000,0.38,
2468.000,0.37,
2467.000,0.36,
2466.000,0.36,
2465.000,0.35,
2464.000,0.35,
2463.000,0.34,
2462.000,0.33,
2461.000,0.33,
2460.000,0.32,
2459.000,0.32,
2458.000,0.31,
2457.000,0.31,
2456.000,0.31,
2455.000,0.3,
2454.000,0.3,
2453.000,0.3,
2452.000,0.29,
2451.000,0.29,
2450.000,0.29,
2449.000,0.28,
2448.000,0.28,
2447.000,0.28,
2446.000,0.28,
2445.000,0.27,
2444.000,0.27,
2443.000,0.27,
2442.000,0.27,
2441.000,0.27,
2440.000,0.27,
2439.000,0.26,
2438.000,0.26,
2437.000,0.26,
2436.000,0.26,
2435.000,0.26,
2434.000,0.26,
2433.000,0.26,
2432.000,0.25,
2431.000,0.25,
2430.000,0.25,
2429.000,0.25,
2428.000,0.25,
2427.000,0.25,
2426.000,0.25,
2425.000,0.25,
2424.000,0.25,
2423.000,0.25,
2422.000,0.25,
2421.000,0.25,
2420.000,0.26,
2419.000,0.26,
2418.000,0.26,
2417.000,0.26,
2416.000,0.26,
2415.000,0.26,
2414.000,0.26,
2413.000,0.26,
2412.000,0.26,
2411.000,0.26,
2410.000,0.27,
2409.000,0.27,
2408.000,0.27,
2407.000,0.28,
2406.000,0.28,
2405.000,0.28,
2404.000,0.28,
2403.000,0.29,
2402.000,0.29,
2401.000,0.29,
2400.000,0.3,
2399.000,0.3,
2398.000,0.3,
2397.000,0.31,
2396.000,0.31,
2395.000,0.32,
2394.000,0.32,
2393.000,0.33,
2392.000,0.34,
2391.000,0.34,
2390.000,0.35,
2389.000,0.36,
2388.000,0.36,
2387.000,0.37,
2386.000,0.38,
2385.000,0.39,
2384.000,0.4,
2383.000,0.41,
2382.000,0.42,
2381.000,0.43,
2380.000,0.44,
2379.000,0.46,
2378.000,0.47,
2377.000,0.49,
2376.000,0.5,
2375.000,0.52,
2374.000,0.54,
2373.000,0.56,
2372.000,0.59,
2371.000,0.61,
2370.000,0.64,
2369.000,0.67,
2368.000,0.7,
2367.000,0.73,
2366.000,0.76,
2365.000,0.8,
2364.000,0.84,
2363.000,0.88,
2362.000,0.92,
2361.000,0.97,
2360.000,1.01,
2359.000,1.06,
2358.000,1.12,
2357.000,1.17,
2356.000,1.22,
2355.000,1.28,
2354.000,1.35,
2353.000,1.41,
2352.000,1.47,
2351.000,1.53,
2350.000,1.6,
2349.000,1.66,
2348.000,1.73,
2347.000,1.8,
2346.000,1.87,
2345.000,1.95,
2344.000,2.02,
2343.000,2.09,
2342.000,2.16,
2341.000,2.23,
2340.000,2.29,
2339.000,2.35,
2338.000,2.42,
2337.000,2.49,
2336.000,2.56,
2335.000,2.63,
2334.000,2.7,
2333.000,2.78,
2332.000,2.85,
2331.000,2.94,
2330.000,3.01,
2329.000,3.12,
2328.000,3.15,
2327.000,3.38,
2326.000,4.87,
2325.000,4.81,
2324.000,4.87,
2323.000,4.87,
2322.000,4.89,
2321.000,4.91,
2320.000,4.94,
2319.000,4.97,
2318.000,4.99,
2317.000,5.02,
2316.000,5.03,
2315.000,5.04,
2314.000,5.05,
2313.000,5.05,
2312.000,5.03,
2311.000,5.01,
2310.000,4.95,
2309.000,4.89,
2308.000,4.8,
2307.000,4.7,
2306.000,4.56,
2305.000,4.41,
2304.000,4.24,
2303.000,4.06,
2302.000,3.86,
2301.000,3.66,
2300.000,3.45,
2299.000,3.24,
2298.000,3.04,
2297.000,2.84,
2296.000,2.65,
2295.000,2.48,
2294.000,2.31,
2293.000,2.16,
2292.000,2.02,
2291.000,1.89,
2290.000,1.77,
2289.000,1.65,
2288.000,1.55,
2287.000,1.45,
2286.000,1.36,
2285.000,1.28,
2284.000,1.2,
2283.000,1.12,
2282.000,1.06,
2281.000,0.99,
2280.000,0.94,
2279.000,0.88,
2278.000,0.84,
2277.000,0.79,
2276.000,0.75,
2275.000,0.71,
2274.000,0.68,
2273.000,0.64,
2272.000,0.62,
2271.000,0.59,
2270.000,0.56,
2269.000,0.54,
2268.000,0.52,
2267.000,0.5,
2266.000,0.48,
2265.000,0.46,
2264.000,0.44,
2263.000,0.43,
2262.000,0.41,
2261.000,0.4,
2260.000,0.39,
2259.000,0.37,
2258.000,0.36,
2257.000,0.35,
2256.000,0.34,
2255.000,0.33,
2254.000,0.32,
2253.000,0.32,
2252.000,0.31,
2251.000,0.3,
2250.000,0.29,
2249.000,0.29,
2248.000,0.28,
2247.000,0.27,
2246.000,0.27,
2245.000,0.26,
2244.000,0.26,
2243.000,0.25,
2242.000,0.25,
2241.000,0.24,
2240.000,0.24,
2239.000,0.23,
2238.000,0.23,
2237.000,0.23,
2236.000,0.23,
2235.000,0.22,
2234.000,0.22,
2233.000,0.22,
2232.000,0.21,
2231.000,0.21,
2230.000,0.21,
2229.000,0.2,
2228.000,0.2,
2227.000,0.2,
2226.000,0.2,
2225.000,0.19,
2224.000,0.19,
2223.000,0.19,
2222.000,0.19,
2221.000,0.19,
2220.000,0.19,
2219.000,0.19,
2218.000,0.18,
2217.000,0.18,
2216.000,0.18,
2215.000,0.18,
2214.000,0.18,
2213.000,0.18,
2212.000,0.18,
2211.000,0.18,
2210.000,0.18,
2209.000,0.18,
2208.000,0.18,
2207.000,0.18,
2206.000,0.17,
2205.000,0.17,
2204.000,0.17,
2203.000,0.17,
2202.000,0.17,
2201.000,0.17,
2200.000,0.17,
2199.000,0.17,
2198.000,0.17,
2197.000,0.17,
2196.000,0.17,
2195.000,0.18,
2194.000,0.18,
2193.000,0.18,
2192.000,0.18,
2191.000,0.18,
2190.000,0.18,
2189.000,0.18,
2188.000,0.18,
2187.000,0.18,
2186.000,0.18,
2185.000,0.18,
2184.000,0.19,
2183.000,0.19,
2182.000,0.19,
2181.000,0.19,
2180.000,0.19,
2179.000,0.19,
2178.000,0.19,
2177.000,0.2,
2176.000,0.2,
2175.000,0.2,
2174.000,0.2,
2173.000,0.2,
2172.000,0.21,
2171.000,0.21,
2170.000,0.21,
2169.000,0.22,
2168.000,0.22,
2167.000,0.22,
2166.000,0.23,
2165.000,0.23,
2164.000,0.23,
2163.000,0.24,
2162.000,0.24,
2161.000,0.25,
2160.000,0.25,
2159.000,0.26,
2158.000,0.26,
2157.000,0.27,
2156.000,0.28,
2155.000,0.29,
2154.000,0.3,
2153.000,0.3,
2152.000,0.31,
2151.000,0.32,
2150.000,0.33,
2149.000,0.35,
2148.000,0.36,
2147.000,0.37,
2146.000,0.38,
2145.000,0.4,
2144.000,0.42,
2143.000,0.43,
2142.000,0.45,
2141.000,0.48,
2140.000,0.5,
2139.000,0.52,
2138.000,0.55,
2137.000,0.58,
2136.000,0.61,
2135.000,0.64,
2134.000,0.67,
2133.000,0.71,
2132.000,0.75,
2131.000,0.79,
2130.000,0.83,
2129.000,0.88,
2128.000,0.92,
2127.000,0.98,
2126.000,1.03,
2125.000,1.09,
2124.000,1.14,
2123.000,1.21,
2122.000,1.27,
2121.000,1.33,
2120.000,1.39,
2119.000,1.46,
2118.000,1.52,
2117.000,1.59,
2116.000,1.65,
2115.000,1.72,
2114.000,1.78,
2113.000,1.85,
2112.000,1.92,
2111.000,1.99,
2110.000,2.06,
2109.000,2.13,
2108.000,2.2,
2107.000,2.27,
2106.000,2.34,
2105.000,2.41,
2104.000,2.48,
2103.000,2.55,
2102.000,2.62,
2101.000,2.69,
2100.000,2.76,
2099.000,2.83,
2098.000,2.9,
2097.000,2.97,
2096.000,3.03,
2095.000,3.1,
2094.000,3.17,
2093.000,3.23,
2092.000,3.29,
2091.000,3.34,
2090.000,3.39,
2089.000,3.43,
2088.000,3.46,
2087.000,3.47,
2086.000,3.47,
2085.000,3.45,
2084.000,3.4,
2083.000,3.33,
2082.000,3.24,
2081.000,3.12,
2080.000,2.99,
2079.000,2.84,
2078.000,2.68,
2077.000,2.51,
2076.000,2.35,
2075.000,2.18,
2074.000,2.02,
2073.000,1.87,
2072.000,1.73,
2071.000,1.59,
2070.000,1.47,
2069.000,1.36,
2068.000,1.25,
2067.000,1.16,
2066.000,1.08,
2065.000,1,
2064.000,0.94,
2063.000,0.88,
2062.000,0.83,
2061.000,0.78,
2060.000,0.74,
2059.000,0.7,
2058.000,0.66,
2057.000,0.63,
2056.000,0.6,
2055.000,0.57,
2054.000,0.54,
2053.000,0.51,
2052.000,0.49,
2051.000,0.46,
2050.000,0.44,
2049.000,0.42,
2048.000,0.4,
2047.000,0.38,
2046.000,0.36,
2045.000,0.35,
2044.000,0.34,
2043.000,0.32,
2042.000,0.31,
2041.000,0.3,
2040.000,0.29,
2039.000,0.28,
2038.000,0.27,
2037.000,0.26,
2036.000,0.25,
2035.000,0.24,
2034.000,0.24,
2033.000,0.23,
2032.000,0.22,
2031.000,0.22,
2030.000,0.21,
2029.000,0.21,
2028.000,0.2,
2027.000,0.2,
2026.000,0.19,
2025.000,0.19,
2024.000,0.18,
2023.000,0.18,
2022.000,0.17,
2021.000,0.17,
2020.000,0.17,
2019.000,0.17,
2018.000,0.16,
2017.000,0.16,
2016.000,0.16,
2015.000,0.16,
2014.000,0.15,
2013.000,0.15,
2012.000,0.15,
2011.000,0.15,
2010.000,0.14,
2009.000,0.14,
2008.000,0.14,
2007.000,0.14,
2006.000,0.13,
2005.000,0.13,
2004.000,0.13,
2003.000,0.13,
2002.000,0.13,
2001.000,0.13,
2000.000,0.13,
1999.000,0.13,
1998.000,0.12,
1997.000,0.12,
1996.000,0.12,
1995.000,0.12,
1994.000,0.12,
1993.000,0.12,
1992.000,0.12,
1991.000,0.12,
1990.000,0.12,
1989.000,0.12,
1988.000,0.12,
1987.000,0.12,
1986.000,0.12,
1985.000,0.12,
1984.000,0.12,
1983.000,0.12,
1982.000,0.12,
1981.000,0.12,
1980.000,0.12,
1979.000,0.12,
1978.000,0.12,
1977.000,0.12,
1976.000,0.12,
1975.000,0.12,
1974.000,0.12,
1973.000,0.12,
1972.000,0.12,
1971.000,0.12,
1970.000,0.12,
1969.000,0.12,
1968.000,0.12,
1967.000,0.12,
1966.000,0.12,
1965.000,0.12,
1964.000,0.12,
1963.000,0.12,
1962.000,0.12,
1961.000,0.12,
1960.000,0.12,
1959.000,0.13,
1958.000,0.13,
1957.000,0.13,
1956.000,0.13,
1955.000,0.13,
1954.000,0.13,
1953.000,0.13,
1952.000,0.14,
1951.000,0.14,
1950.000,0.14,
1949.000,0.14,
1948.000,0.14,
1947.000,0.15,
1946.000,0.15,
1945.000,0.15,
1944.000,0.15,
1943.000,0.16,
1942.000,0.16,
1941.000,0.16,
1940.000,0.17,
1939.000,0.17,
1938.000,0.17,
1937.000,0.18,
1936.000,0.18,
1935.000,0.19,
1934.000,0.19,
1933.000,0.2,
1932.000,0.21,
1931.000,0.21,
1930.000,0.22,
1929.000,0.23,
1928.000,0.23,
1927.000,0.24,
1926.000,0.25,
1925.000,0.26,
1924.000,0.27,
1923.000,0.28,
1922.000,0.3,
1921.000,0.32,
1920.000,0.33,
1919.000,0.35,
1918.000,0.37,
1917.000,0.39,
1916.000,0.41,
1915.000,0.44,
1914.000,0.46,
1913.000,0.49,
1912.000,0.52,
1911.000,0.55,
1910.000,0.59,
1909.000,0.63,
1908.000,0.67,
1907.000,0.72,
1906.000,0.77,
1905.000,0.82,
1904.000,0.87,
1903.000,0.93,
1902.000,0.98,
1901.000,1.04,
1900.000,1.1,
1899.000,1.17,
1898.000,1.23,
1897.000,1.29,
1896.000,1.35,
1895.000,1.42,
1894.000,1.49,
1893.000,1.56,
1892.000,1.63,
1891.000,1.69,
1890.000,1.76,
1889.000,1.83,
1888.000,1.89,
1887.000,1.95,
1886.000,2,
1885.000,2.04,
1884.000,2.1,
1883.000,2.15,
1882.000,2.2,
1881.000,2.24,
1880.000,2.27,
1879.000,2.3,
1878.000,2.33,
1877.000,2.34,
1876.000,2.34,
1875.000,2.33,
1874.000,2.31,
1873.000,2.29,
1872.000,2.26,
1871.000,2.21,
1870.000,2.15,
1869.000,2.07,
1868.000,1.99,
1867.000,1.91,
1866.000,1.82,
1865.000,1.73,
1864.000,1.62,
1863.000,1.52,
1862.000,1.41,
1861.000,1.3,
1860.000,1.2,
1859.000,1.1,
1858.000,1,
1857.000,0.92,
1856.000,0.84,
1855.000,0.77,
1854.000,0.7,
1853.000,0.64,
1852.000,0.59,
1851.000,0.54,
1850.000,0.5,
1849.000,0.46,
1848.000,0.43,
1847.000,0.41,
1846.000,0.39,
1845.000,0.36,
1844.000,0.34,
1843.000,0.31,
1842.000,0.29,
1841.000,0.27,
1840.000,0.25,
1839.000,0.24,
1838.000,0.23,
1837.000,0.22,
1836.000,0.21,
1835.000,0.2,
1834.000,0.19,
1833.000,0.19,
1832.000,0.18,
1831.000,0.17,
1830.000,0.17,
1829.000,0.16,
1828.000,0.15,
1827.000,0.15,
1826.000,0.14,
1825.000,0.14,
1824.000,0.13,
1823.000,0.13,
1822.000,0.12,
1821.000,0.12,
1820.000,0.12,
1819.000,0.11,
1818.000,0.11,
1817.000,0.11,
1816.000,0.11,
1815.000,0.1,
1814.000,0.1,
1813.000,0.1,
1812.000,0.1,
1811.000,0.1,
1810.000,0.09,
1809.000,0.09,
1808.000,0.09,
1807.000,0.09,
1806.000,0.09,
1805.000,0.09,
1804.000,0.09,
1803.000,0.09,
1802.000,0.09,
1801.000,0.08,
1800.000,0.08,
1799.000,0.08,
1798.000,0.08,
1797.000,0.08,
1796.000,0.08,
1795.000,0.08,
1794.000,0.08,
1793.000,0.08,
1792.000,0.08,
1791.000,0.08,
1790.000,0.08,
1789.000,0.08,
1788.000,0.08,
1787.000,0.08,
1786.000,0.08,
1785.000,0.08,
1784.000,0.08,
1783.000,0.08,
1782.000,0.08,
1781.000,0.08,
1780.000,0.08,
1779.000,0.08,
1778.000,0.08,
1777.000,0.08,
1776.000,0.09,
1775.000,0.09,
1774.000,0.09,
1773.000,0.09,
1772.000,0.1,
1771.000,0.1,
1770.000,0.1,
1769.000,0.1,
1768.000,0.1,
1767.000,0.1,
1766.000,0.1,
1765.000,0.1,
1764.000,0.11,
1763.000,0.11,
1762.000,0.12,
1761.000,0.13,
1760.000,0.13,
1759.000,0.14,
1758.000,0.15,
1757.000,0.17,
1756.000,0.18,
1755.000,0.19,
1754.000,0.2,
1753.000,0.22,
1752.000,0.23,
1751.000,0.24,
1750.000,0.25,
1749.000,0.26,
1748.000,0.28,
1747.000,0.29,
1746.000,0.3,
1745.000,0.31,
1744.000,0.31,
1743.000,0.3,
1742.000,0.28,
1741.000,0.26,
1740.000,0.22,
1739.000,0.18,
1738.000,0.15,
1737.000,0.12,
1736.000,0.1,
1735.000,0.08,
1734.000,0.06,
1733.000,0.05,
1732.000,0.04,
1731.000,0.03,
1730.000,0.03,
1729.000,0.02,
1728.000,0.02,
1727.000,0.01,
1726.000,0.01,
1725.000,0.01,
1724.000,0.01,
1723.000,1E-8,
1722.000,1E-8,
1721.000,1E-8,
1720.000,1E-8,
1719.000,1E-8,
1718.000,1E-8,
1717.000,1E-8,
1716.000,1E-8,
1715.000,1E-8,
1714.000,1E-8,
1713.000,1E-8,
1712.000,1E-8,
1711.000,1E-8,
1710.000,1E-8,
1709.000,1E-8,
1708.000,1E-8,
1707.000,1E-8,
1706.000,1E-8,
1705.000,1E-8,
1704.000,1E-8,
1703.000,1E-8,
1702.000,1E-8,
1701.000,1E-8,
1700.000,0.01,
1699.000,0.01,
1698.000,0.02,
1697.000,0.03,
1696.000,0.04,
1695.000,0.06,
1694.000,0.08,
1693.000,0.1,
1692.000,0.12,
1691.000,0.14,
1690.000,0.16,
1689.000,0.17,
1688.000,0.18,
1687.000,0.17,
1686.000,0.16,
1685.000,0.15,
1684.000,0.13,
1683.000,0.12,
1682.000,0.1,
1681.000,0.09,
1680.000,0.08,
1679.000,0.08,
1678.000,0.07,
1677.000,0.07,
1676.000,0.07,
1675.000,0.07,
1674.000,0.07,
1673.000,0.07,
1672.000,0.07,
1671.000,0.07,
1670.000,0.07,
1669.000,0.06,
1668.000,0.06,
1667.000,0.06,
1666.000,0.06,
1665.000,0.06,
1664.000,0.06,
1663.000,0.06,
1662.000,0.07,
1661.000,0.06,
1660.000,0.06,
1659.000,0.06,
1658.000,0.07,
1657.000,0.07,
1656.000,0.07,
1655.000,0.08,
1654.000,0.08,
1653.000,0.08,
1652.000,0.08,
1651.000,0.08,
1650.000,0.08,
1649.000,0.08,
1648.000,0.08,
1647.000,0.09,
1646.000,0.09,
1645.000,0.09,
1644.000,0.09,
1643.000,0.09,
1642.000,0.09,
1641.000,0.1,
1640.000,0.1,
1639.000,0.11,
1638.000,0.11,
1637.000,0.12,
1636.000,0.13,
1635.000,0.13,
1634.000,0.14,
1633.000,0.13,
1632.000,0.14,
1631.000,0.14,
1630.000,0.15,
1629.000,0.15,
1628.000,0.16,
1627.000,0.18,
1626.000,0.19,
1625.000,0.21,
1624.000,0.22,
1623.000,0.25,
1622.000,0.27,
1621.000,0.29,
1620.000,0.31,
1619.000,0.34,
1618.000,0.37,
1617.000,0.4,
1616.000,0.45,
1615.000,0.49,
1614.000,0.52,
1613.000,0.55,
1612.000,0.58,
1611.000,0.62,
1610.000,0.66,
1609.000,0.7,
1608.000,0.75,
1607.000,0.81,
1606.000,0.87,
1605.000,0.92,
1604.000,0.98,
1603.000,1.04,
1602.000,1.1,
1601.000,1.15,
1600.000,1.21,
1599.000,1.26,
1598.000,1.3,
1597.000,1.34,
1596.000,1.36,
1595.000,1.39,
1594.000,1.4,
1593.000,1.39,
1592.000,1.37,
1591.000,1.33,
1590.000,1.29,
1589.000,1.24,
1588.000,1.18,
1587.000,1.13,
1586.000,1.07,
1585.000,1,
1584.000,0.93,
1583.000,0.86,
1582.000,0.79,
1581.000,0.72,
1580.000,0.66,
1579.000,0.6,
1578.000,0.54,
1577.000,0.49,
1576.000,0.45,
1575.000,0.41,
1574.000,0.38,
1573.000,0.35,
1572.000,0.33,
1571.000,0.31,
1570.000,0.28,
1569.000,0.26,
1568.000,0.24,
1567.000,0.22,
1566.000,0.21,
1565.000,0.19,
1564.000,0.18,
1563.000,0.18,
1562.000,0.17,
1561.000,0.18,
1560.000,0.17,
1559.000,0.17,
1558.000,0.14,
1557.000,0.12,
1556.000,0.12,
1555.000,0.11,
1554.000,0.11,
1553.000,0.1,
1552.000,0.1,
1551.000,0.1,
1550.000,0.09,
1549.000,0.09,
1548.000,0.09,
1547.000,0.09,
1546.000,0.08,
1545.000,0.08,
1544.000,0.08,
1543.000,0.08,
1542.000,0.08,
1541.000,0.08,
1540.000,0.08,
1539.000,0.07,
1538.000,0.07,
1537.000,0.07,
1536.000,0.07,
1535.000,0.06,
1534.000,0.06,
1533.000,0.06,
1532.000,0.06,
1531.000,0.06,
1530.000,0.06,
1529.000,0.06,
1528.000,0.06,
1527.000,0.06,
1526.000,0.06,
1525.000,0.06,
1524.000,0.06,
1523.000,0.05,
1522.000,0.05,
1521.000,0.05,
1520.000,0.05,
1519.000,0.05,
1518.000,0.05,
1517.000,0.05,
1516.000,0.05,
1515.000,0.05,
1514.000,0.05,
1513.000,0.05,
1512.000,0.05,
1511.000,0.05,
1510.000,0.05,
1509.000,0.05,
1508.000,0.05,
1507.000,0.05,
1506.000,0.05,
1505.000,0.05,
1504.000,0.05,
1503.000,0.04,
1502.000,0.04,
1501.000,0.04,
1500.000,0.04,
1499.000,0.04,
1498.000,0.05,
1497.000,0.05,
1496.000,0.05,
1495.000,0.05,
1494.000,0.05,
1493.000,0.05,
1492.000,0.05,
1491.000,0.05,
1490.000,0.05,
1489.000,0.05,
1488.000,0.05,
1487.000,0.05,
1486.000,0.05,
1485.000,0.05,
1484.000,0.05,
1483.000,0.05,
1482.000,0.05,
1481.000,0.05,
1480.000,0.05,
1479.000,0.05,
1478.000,0.05,
1477.000,0.05,
1476.000,0.06,
1475.000,0.06,
1474.000,0.06,
1473.000,0.06,
1472.000,0.07,
1471.000,0.07,
1470.000,0.07,
1469.000,0.07,
1468.000,0.07,
1467.000,0.07,
1466.000,0.07,
1465.000,0.07,
1464.000,0.07,
1463.000,0.07,
1462.000,0.07,
1461.000,0.07,
1460.000,0.07,
1459.000,0.08,
1458.000,0.08,
1457.000,0.08,
1456.000,0.07,
1455.000,0.06,
1454.000,0.05,
1453.000,0.04,
1452.000,0.03,
1451.000,0.02,
1450.000,0.02,
1449.000,0.02,
1448.000,0.02,
1447.000,0.02,
1446.000,0.02,
1445.000,0.03,
1444.000,0.03,
1443.000,0.04,
1442.000,0.04,
1441.000,0.05,
1440.000,0.05,
1439.000,0.05,
1438.000,0.06,
1437.000,0.06,
1436.000,0.06,
1435.000,0.06,
1434.000,0.06,
1433.000,0.05,
1432.000,0.05,
1431.000,0.05,
1430.000,0.04,
1429.000,0.04,
1428.000,0.04,
1427.000,0.04,
1426.000,0.04,
1425.000,0.04,
1424.000,0.04,
1423.000,0.04,
1422.000,0.04,
1421.000,0.04,
1420.000,0.04,
1419.000,0.04,
1418.000,0.04,
1417.000,0.04,
1416.000,0.04,
1415.000,0.05,
1414.000,0.05,
1413.000,0.06,
1412.000,0.06,
1411.000,0.07,
1410.000,0.07,
1409.000,0.08,
1408.000,0.09,
1407.000,0.1,
1406.000,0.11,
1405.000,0.12,
1404.000,0.13,
1403.000,0.14,
1402.000,0.15,
1401.000,0.17,
1400.000,0.19,
1399.000,0.21,
1398.000,0.23,
1397.000,0.26,
1396.000,0.28,
1395.000,0.31,
1394.000,0.35,
1393.000,0.38,
1392.000,0.41,
1391.000,0.44,
1390.000,0.48,
1389.000,0.52,
1388.000,0.56,
1387.000,0.59,
1386.000,0.63,
1385.000,0.66,
1384.000,0.68,
1383.000,0.71,
1382.000,0.73,
1381.000,0.74,
1380.000,0.74,
1379.000,0.73,
1378.000,0.72,
1377.000,0.7,
1376.000,0.66,
1375.000,0.62,
1374.000,0.58,
1373.000,0.53,
1372.000,0.47,
1371.000,0.42,
1370.000,0.37,
1369.000,0.33,
1368.000,0.29,
1367.000,0.26,
1366.000,0.23,
1365.000,0.2,
1364.000,0.18,
1363.000,0.16,
1362.000,0.15,
1361.000,0.13,
1360.000,0.12,
1359.000,0.1,
1358.000,0.09,
1357.000,0.08,
1356.000,0.07,
1355.000,0.07,
1354.000,0.06,
1353.000,0.06,
1352.000,0.05,
1351.000,0.04,
1350.000,0.04,
1349.000,0.03,
1348.000,0.03,
1347.000,0.03,
1346.000,0.04,
1345.000,0.04,
1344.000,0.04,
1343.000,0.04,
1342.000,0.04,
1341.000,0.04,
1340.000,0.03,
1339.000,0.03,
1338.000,0.03,
1337.000,0.04,
1336.000,0.04,
1335.000,0.05,
1334.000,0.05,
1333.000,0.05,
1332.000,0.05,
1331.000,0.05,
1330.000,0.05,
1329.000,0.04,
1328.000,0.04,
1327.000,0.04,
1326.000,0.04,
1325.000,0.03,
1324.000,0.03,
1323.000,0.03,
1322.000,0.03,
1321.000,0.03,
1320.000,0.02,
1319.000,0.02,
1318.000,0.02,
1317.000,0.02,
1316.000,0.02,
1315.000,0.01,
1314.000,0.01,
1313.000,0.01,
1312.000,0.01,
1311.000,0.01,
1310.000,0.01,
1309.000,0.02,
1308.000,0.02,
1307.000,0.03,
1306.000,0.04,
1305.000,0.04,
1304.000,0.04,
1303.000,0.04,
1302.000,0.04,
1301.000,0.04,
1300.000,0.04,
1299.000,0.04,
1298.000,0.04,
1297.000,0.04,
1296.000,0.04,
1295.000,0.04,
1294.000,0.03,
1293.000,0.03,
1292.000,0.03,
1291.000,0.03,
1290.000,0.03,
1289.000,0.03,
1288.000,0.03,
1287.000,0.03,
1286.000,0.03,
1285.000,0.03,
1284.000,0.03,
1283.000,0.03,
1282.000,0.02,
1281.000,0.02,
1280.000,0.02,
1279.000,0.02,
1278.000,0.02,
1277.000,0.02,
1276.000,0.02,
1275.000,0.02,
1274.000,0.02,
1273.000,0.02,
1272.000,0.02,
1271.000,0.02,
1270.000,0.02,
1269.000,0.02,
1268.000,0.02,
1267.000,0.02,
1266.000,0.02,
1265.000,0.02,
1264.000,0.02,
1263.000,0.02,
1262.000,0.02,
1261.000,0.02,
1260.000,0.02,
1259.000,0.02,
1258.000,0.02,
1257.000,0.02,
1256.000,0.02,
1255.000,0.02,
1254.000,0.02,
1253.000,0.02,
1252.000,0.02,
1251.000,0.02,
1250.000,0.02,
1249.000,0.02,
1248.000,0.02,
1247.000,0.02,
1246.000,0.02,
1245.000,0.02,
1244.000,0.02,
1243.000,0.02,
1242.000,0.02,
1241.000,0.02,
1240.000,0.02,
1239.000,0.02,
1238.000,0.02,
1237.000,0.02,
1236.000,0.02,
1235.000,0.03,
1234.000,0.03,
1233.000,0.03,
1232.000,0.02,
1231.000,0.02,
1230.000,0.02,
1229.000,0.02,
1228.000,0.02,
1227.000,0.02,
1226.000,0.01,
1225.000,0.01,
1224.000,0.01,
1223.000,0.01,
1222.000,1E-8,
1221.000,0.01,
1220.000,0.01,
1219.000,0.01,
1218.000,0.01,
1217.000,0.01,
1216.000,0.01,
1215.000,0.01,
1214.000,0.02,
1213.000,0.02,
1212.000,0.02,
1211.000,0.02,
1210.000,0.02,
1209.000,0.02,
1208.000,0.02,
1207.000,0.02,
1206.000,0.02,
1205.000,0.02,
1204.000,0.02,
1203.000,0.02,
1202.000,0.02,
1201.000,0.02,
1200.000,0.02,
1199.000,0.02,
1198.000,0.02,
1197.000,0.02,
1196.000,0.03,
1195.000,0.03,
1194.000,0.03,
1193.000,0.03,
1192.000,0.03,
1191.000,0.03,
1190.000,0.03,
1189.000,0.03,
1188.000,0.04,
1187.000,0.04,
1186.000,0.04,
1185.000,0.04,
1184.000,0.05,
1183.000,0.05,
1182.000,0.05,
1181.000,0.05,
1180.000,0.06,
1179.000,0.06,
1178.000,0.06,
1177.000,0.07,
1176.000,0.07,
1175.000,0.08,
1174.000,0.09,
1173.000,0.1,
1172.000,0.1,
1171.000,0.11,
1170.000,0.12,
1169.000,0.13,
1168.000,0.14,
1167.000,0.16,
1166.000,0.17,
1165.000,0.18,
1164.000,0.2,
1163.000,0.21,
1162.000,0.22,
1161.000,0.23,
1160.000,0.24,
1159.000,0.25,
1158.000,0.27,
1157.000,0.28,
1156.000,0.29,
1155.000,0.29,
1154.000,0.3,
1153.000,0.3,
1152.000,0.3,
1151.000,0.29,
1150.000,0.29,
1149.000,0.27,
1148.000,0.26,
1147.000,0.24,
1146.000,0.22,
1145.000,0.19,
1144.000,0.17,
1143.000,0.15,
1142.000,0.13,
1141.000,0.12,
1140.000,0.1,
1139.000,0.09,
1138.000,0.07,
1137.000,0.06,
1136.000,0.05,
1135.000,0.05,
1134.000,0.04,
1133.000,0.04,
1132.000,0.03,
1131.000,0.03,
1130.000,0.03,
1129.000,0.02,
1128.000,0.02,
1127.000,0.01,
1126.000,0.01,
1125.000,0.01,
1124.000,0.01,
1123.000,0.01,
1122.000,0.01,
1121.000,1E-8,
1120.000,1E-8,
1119.000,1E-8,
1118.000,0.01,
1117.000,0.01,
1116.000,0.01,
1115.000,0.02,
1114.000,0.03,
1113.000,0.03,
1112.000,0.04,
1111.000,0.05,
1110.000,0.05,
1109.000,0.05,
1108.000,0.05,
1107.000,0.05,
1106.000,0.04,
1105.000,0.04,
1104.000,0.04,
1103.000,0.04,
1102.000,0.03,
1101.000,0.03,
1100.000,0.03,
1099.000,0.03,
1098.000,0.03,
1097.000,0.02,
1096.000,0.02,
1095.000,0.02,
1094.000,0.02,
1093.000,0.02,
1092.000,0.02,
1091.000,0.02,
1090.000,0.01,
1089.000,0.01,
1088.000,0.01,
1087.000,0.01,
1086.000,0.01,
1085.000,0.01,
1084.000,0.01,
1083.000,0.01,
1082.000,0.01,
1081.000,0.01,
1080.000,0.01,
1079.000,1E-8,
1078.000,1E-8,
1077.000,1E-8,
1076.000,1E-8,
1075.000,0.01,
1074.000,0.01,
1073.000,1E-8,
1072.000,1E-8,
1071.000,0.01,
1070.000,1E-8,
1069.000,1E-8,
1068.000,0.01,
1067.000,0.01,
1066.000,0.01,
1065.000,0.01,
1064.000,0.01,
1063.000,0.01,
1062.000,0.01,
1061.000,0.01,
1060.000,0.01,
1059.000,1E-8,
1058.000,1E-8,
1057.000,1E-8,
1056.000,0.01,
1055.000,0.01,
1054.000,0.01,
1053.000,0.01,
1052.000,0.01,
1051.000,0.01,
1050.000,1E-8,
1049.000,1E-8,
1048.000,1E-8,
1047.000,1E-8,
1046.000,1E-8,
1045.000,1E-8,
1044.000,1E-8,
1043.000,0.01,
1042.000,0.01,
1041.000,0.01,
1040.000,0.01,
1039.000,0.01,
1038.000,0.01,
1037.000,0.01,
1036.000,0.01,
1035.000,0.01,
1034.000,0.01,
1033.000,0.01,
1032.000,0.01,
1031.000,0.01,
1030.000,0.01,
1029.000,0.01,
1028.000,0.01,
1027.000,0.01,
1026.000,0.01,
1025.000,0.01,
1024.000,0.01,
1023.000,1E-8,
1022.000,1E-8,
1021.000,1E-8,
1020.000,0.01,
1019.000,0.01,
1018.000,0.01,
1017.000,0.01,
1016.000,1E-8,
1015.000,1E-8,
1014.000,0.01,
1013.000,0.01,
1012.000,0.01,
1011.000,0.01,
1010.000,0.01,
1009.000,0.01,
1008.000,0.01,
1007.000,0.01,
1006.000,0.01,
1005.000,0.01,
1004.000,0.01,
1003.000,0.01,
1002.000,1E-8,
1001.000,1E-8,
1000.000,1E-8,
999.000,1E-8,
998.000,1E-8,
997.000,1E-8,
996.000,1E-8,
995.000,1E-8,
994.000,1E-8,
993.000,1E-8,
992.000,1E-8,
991.000,1E-8,
990.000,1E-8,
989.000,1E-8,
988.000,1E-8,
987.000,1E-8,
986.000,0.01,
985.000,0.01,
984.000,0.01,
983.000,1E-8,
982.000,1E-8,
981.000,0.01,
980.000,0.01,
979.000,0.01,
978.000,0.01,
977.000,1E-8,
976.000,1E-8,
975.000,1E-8,
974.000,1E-8,
973.000,1E-8,
972.000,0.01,
971.000,0.01,
970.000,0.01,
969.000,0.01,
968.000,0.01,
967.000,0.01,
966.000,1E-8,
965.000,1E-8,
964.000,1E-8,
963.000,1E-8,
962.000,1E-8,
961.000,1E-8,
960.000,1E-8,
959.000,1E-8,
958.000,1E-8,
957.000,1E-8,
956.000,1E-8,
955.000,1E-8,
954.000,1E-8,
953.000,1E-8,
952.000,1E-8,
951.000,0.01,
950.000,0.01,
949.000,0.01,
948.000,0.01,
947.000,1E-8,
946.000,1E-8,
945.000,1E-8,
944.000,1E-8,
943.000,1E-8,
942.000,1E-8,
941.000,1E-8,
940.000,1E-8,
939.000,1E-8,
938.000,1E-8,
937.000,1E-8,
936.000,1E-8,
935.000,1E-8,
934.000,1E-8,
933.000,1E-8,
932.000,0.01,
931.000,0.01,
930.000,0.01,
929.000,0.01,
928.000,0.01,
927.000,1E-8,
926.000,1E-8,
925.000,1E-8,
924.000,1E-8,
923.000,0.01,
922.000,0.01,
921.000,0.01,
920.000,0.01,
919.000,0.01,
918.000,0.01,
917.000,1E-8,
916.000,1E-8,
915.000,1E-8,
914.000,1E-8,
913.000,1E-8,
912.000,1E-8,
911.000,1E-8,
910.000,1E-8,
909.000,1E-8,
908.000,1E-8,
907.000,1E-8,
906.000,1E-8,
905.000,0.01,
904.000,0.01,
903.000,0.01,
902.000,0.01,
901.000,0.01,
900.000,0.01,
899.000,0.01,
898.000,1E-8,
897.000,1E-8,
896.000,1E-8,
895.000,1E-8,
894.000,1E-8,
893.000,1E-8,
892.000,1E-8,
891.000,1E-8,
890.000,1E-8,
889.000,1E-8,
888.000,1E-8,
887.000,0.01,
886.000,0.01,
885.000,0.01,
884.000,0.01,
883.000,0.01,
882.000,0.01,
881.000,0.01,
880.000,0.01,
879.000,0.01,
878.000,1E-8,
877.000,1E-8,
876.000,1E-8,
875.000,1E-8,
874.000,1E-8,
873.000,1E-8,
872.000,1E-8,
871.000,1E-8,
870.000,1E-8,
869.000,1E-8,
868.000,1E-8,
867.000,1E-8,
866.000,0.01,
865.000,0.01,
864.000,0.01,
863.000,0.01,
862.000,0.01,
861.000,0.01,
860.000,0.01,
859.000,0.01,
858.000,0.01,
857.000,1E-8,
856.000,1E-8,
855.000,1E-8,
854.000,1E-8,
853.000,1E-8,
852.000,0.01,
851.000,0.01,
850.000,1E-8,
849.000,1E-8,
848.000,1E-8,
847.000,0.01,
846.000,0.01,
845.000,0.01,
844.000,0.01,
843.000,0.01,
842.000,0.01,
841.000,0.01,
840.000,0.01,
839.000,0.01,
838.000,0.01,
837.000,0.01,
836.000,1E-8,
835.000,1E-8,
834.000,1E-8,
833.000,1E-8,
832.000,1E-8,
831.000,1E-8,
830.000,1E-8,
829.000,1E-8,
828.000,1E-8,
827.000,0.01,
826.000,0.01,
825.000,0.01,
824.000,0.01,
823.000,0.01,
822.000,0.01,
821.000,0.01,
820.000,0.01,
819.000,0.01,
818.000,1E-8,
817.000,1E-8,
816.000,1E-8,
815.000,1E-8,
814.000,1E-8,
813.000,1E-8,
812.000,1E-8,
811.000,1E-8,
810.000,1E-8,
809.000,1E-8,
808.000,1E-8,
807.000,1E-8,
806.000,1E-8,
805.000,1E-8,
804.000,1E-8,
803.000,1E-8,
802.000,1E-8,
801.000,1E-8,
800.000,0.01,
799.000,0.01,
798.000,0.01,
797.000,0.01,
796.000,1E-8,
795.000,0.01,
794.000,0.01,
793.000,0.01,
792.000,0.01,
791.000,0.01,
790.000,0.01,
789.000,1E-8,
788.000,1E-8,
787.000,1E-8,
786.000,1E-8,
785.000,1E-8,
784.000,1E-8,
783.000,1E-8,
782.000,1E-8,
781.000,1E-8,
780.000,0.01,
779.000,0.01,
778.000,0.01,
777.000,1E-8,
776.000,1E-8,
775.000,0.01,
774.000,0.01,
773.000,1E-8,
772.000,1E-8,
771.000,1E-8,
770.000,1E-8,
769.000,0.01,
768.000,0.01,
767.000,1E-8,
766.000,1E-8,
765.000,1E-8,
764.000,1E-8,
763.000,1E-8,
762.000,0.01,
761.000,0.01,
760.000,1E-8,
759.000,1E-8,
758.000,1E-8,
757.000,0.01,
756.000,0.01,
755.000,0.01,
754.000,0.01,
753.000,1E-8,
752.000,1E-8,
751.000,0.01,
750.000,0.01,
749.000,0.01,
748.000,1E-8,
747.000,1E-8,
746.000,1E-8,
745.000,1E-8,
744.000,1E-8,
743.000,1E-8,
742.000,1E-8,
741.000,1E-8,
740.000,1E-8,
739.000,1E-8,
738.000,1E-8,
737.000,1E-8,
736.000,1E-8,
735.000,1E-8,
734.000,1E-8,
733.000,1E-8,
732.000,1E-8,
731.000,1E-8,
730.000,0.01,
729.000,0.01,
728.000,0.01,
727.000,1E-8,
726.000,1E-8,
725.000,1E-8,
724.000,1E-8,
723.000,1E-8,
722.000,1E-8,
721.000,1E-8,
720.000,1E-8,
719.000,1E-8,
718.000,1E-8,
717.000,1E-8,
716.000,1E-8,
715.000,0.01,
714.000,0.01,
713.000,1E-8,
712.000,1E-8,
711.000,1E-8,
710.000,1E-8,
709.000,1E-8,
708.000,1E-8,
707.000,1E-8,
706.000,0.01,
705.000,0.01,
704.000,0.01,
703.000,0.01,
702.000,1E-8,
701.000,1E-8,
700.000,1E-8,
699.000,1E-8,
698.000,1E-8,
697.000,1E-8,
696.000,0.01,
695.000,0.01,
694.000,0.01,
693.000,0.01,
692.000,0.01,
691.000,0.01,
690.000,0.01,
689.000,0.01,
688.000,0.01,
687.000,0.01,
686.000,0.01,
685.000,0.01,
684.000,0.01,
683.000,0.01,
682.000,0.01,
681.000,1E-8,
680.000,1E-8,
679.000,1E-8,
678.000,1E-8,
677.000,1E-8,
676.000,1E-8,
675.000,0.01,
674.000,0.01,
673.000,0.01,
672.000,0.01,
671.000,0.01,
670.000,0.01,
669.000,1E-8,
668.000,1E-8,
667.000,1E-8,
666.000,1E-8,
665.000,1E-8,
664.000,0.01,
663.000,0.01,
662.000,0.01,
661.000,0.01,
660.000,1E-8,
659.000,1E-8,
658.000,1E-8,
657.000,1E-8,
656.000,1E-8,
655.000,0.01,
654.000,0.01,
653.000,1E-8,
652.000,0.01,
651.000,0.02,
650.000,0.02,
649.000,0.02,
648.000,0.02,
647.000,0.02,
646.000,0.02,
645.000,0.02,
644.000,0.01,
643.000,1E-8,
642.000,1E-8,
641.000,0.01,
640.000,0.01,
639.000,1E-8,
638.000,1E-8,
637.000,0.01,
636.000,0.01,
635.000,0.01,
634.000,0.01,
633.000,0.01,
632.000,0.02,
631.000,0.02,
630.000,0.02,
629.000,0.01,
628.000,0.01,
627.000,0.01,
626.000,0.01,
625.000,0.01,
624.000,0.01,
623.000,0.01,
622.000,0.01,
621.000,0.01,
620.000,0.02,
619.000,0.02,
618.000,0.02,
617.000,0.02,
616.000,0.02,
615.000,0.02,
614.000,0.01,
613.000,0.01,
612.000,1E-8,
611.000,1E-8,
610.000,0.01,
609.000,0.01,
608.000,0.01,
607.000,0.01,
606.000,0.01,
605.000,0.01,
604.000,0.01,
603.000,1E-8,
602.000,1E-8,
601.000,0.01,
600.000,0.01,
599.000,1E-8,
598.000,0.01,
597.000,0.01,
596.000,0.01,
595.000,0.02,
594.000,0.01,
593.000,0.01,
592.000,0.01,
591.000,0.01,
590.000,0.01,
589.000,0.01,
588.000,0.01,
587.000,1E-8,
586.000,0.01,
585.000,0.01,
584.000,0.01,
583.000,0.01,
582.000,0.01,
581.000,0.01,
580.000,1E-8,
579.000,0.01,
578.000,0.01,
577.000,0.01,
576.000,0.01,
575.000,0.01,
574.000,0.01,
573.000,0.01,
572.000,0.01,
571.000,0.01,
570.000,0.01,
569.000,0.01,
568.000,0.01,
567.000,1E-8,
566.000,0.01,
565.000,0.01,
564.000,0.01,
563.000,0.01,
562.000,0.01,
561.000,0.01,
560.000,0.02,
559.000,0.02,
558.000,0.02,
557.000,0.01,
556.000,1E-8,
555.000,0.01,
554.000,0.01,
553.000,0.02,
552.000,0.02,
551.000,0.02,
550.000,0.02,
549.000,0.01,
548.000,0.01,
547.000,0.01,
546.000,0.01,
545.000,0.01,
544.000,0.01,
543.000,0.02,
542.000,0.01,
541.000,0.01,
540.000,1E-8,
539.000,0.01,
538.000,0.01,
537.000,0.01,
536.000,1E-8,
535.000,0.01,
534.000,0.01,
533.000,0.01,
532.000,1E-8,
531.000,0.01,
530.000,0.01,
529.000,0.01,
528.000,0.01,
527.000,0.02,
526.000,0.02,
525.000,0.02,
524.000,0.01,
523.000,0.01,
522.000,0.01,
521.000,0.02,
520.000,0.03,
519.000,0.03,
518.000,0.02,
517.000,0.01,
516.000,0.01,
515.000,0.01,
514.000,0.01,
513.000,0.02,
512.000,0.02,
511.000,0.03,
510.000,0.02,
509.000,0.02,
508.000,0.01,
507.000,0.01,
506.000,1E-8,
505.000,1E-8,
504.000,0.01,
503.000,0.01,
502.000,0.01,
501.000,0.01,
500.000,0.03,
499.000,0.03,
498.000,0.03,
497.000,0.02,
496.000,0.01,
495.000,0.01,
494.000,0.02,
493.000,0.02,
492.000,0.02,
491.000,0.02,
490.000,0.01,
489.000,0.02,
488.000,0.02,
487.000,0.02,
486.000,0.02,
485.000,0.02,
484.000,0.03,
483.000,0.05,
482.000,0.07,
481.000,0.08,
480.000,0.07,
479.000,0.05,
478.000,0.03,
477.000,0.02,
476.000,0.01,
475.000,1E-8,
474.000,1E-8,
473.000,0.02,
472.000,0.04,
471.000,0.06,
470.000,0.08,
469.000,0.1,
468.000,0.1,
467.000,0.09,
466.000,0.08,
465.000,0.08,
464.000,0.06,
463.000,0.05,
462.000,0.03,
461.000,0.03,
460.000,0.05,
459.000,0.06,
458.000,0.07,
457.000,0.09,
456.000,0.1,
455.000,0.11,
454.000,0.11,
453.000,0.08,
452.000,0.06,
451.000,0.04,
450.000,0.04,
449.000,0.06,
448.000,0.07,
447.000,0.08,
446.000,0.1,
445.000,0.11,
444.000,0.11,
443.000,0.1,
442.000,0.06,
441.000,0.02,
440.000,0.01,
439.000,0.02,
438.000,0.02,
437.000,0.02,
436.000,0.03,
435.000,0.03,
434.000,0.04,
433.000,0.03,
432.000,0.02,
431.000,0.03,
430.000,0.06,
429.000,0.07,
428.000,0.05,
427.000,0.06,
426.000,0.06,
425.000,0.05,
424.000,0.04,
423.000,0.05,
422.000,0.07,
421.000,0.1,
420.000,0.11,
419.000,0.12,
418.000,0.11,
417.000,0.11,
416.000,0.12,
415.000,0.1,
414.000,0.07,
413.000,0.08,
412.000,0.13,
411.000,0.15,
410.000,0.13,
409.000,0.12,
408.000,0.13,
407.000,0.17,
406.000,0.2,
405.000,0.23,
404.000,0.25,
403.000,0.29,
402.000,0.34,
401.000,0.36,
400.000,0.31,
