Created as New Dataset,Sample 018 By Administrator Date Tuesday, November 30 2021
cm-1,%T
7000.00,11.76
6999.00,11.83
6998.00,11.90
6997.00,11.97
6996.00,12.03
6995.00,12.10
6994.00,12.18
6993.00,12.25
6992.00,12.31
6991.00,12.38
6990.00,12.46
6989.00,12.54
6988.00,12.62
6987.00,12.70
6986.00,12.77
6985.00,12.85
6984.00,12.92
6983.00,12.99
6982.00,13.06
6981.00,13.13
6980.00,13.20
6979.00,13.27
6978.00,13.34
6977.00,13.41
6976.00,13.47
6975.00,13.55
6974.00,13.62
6973.00,13.69
6972.00,13.76
6971.00,13.83
6970.00,13.91
6969.00,13.99
6968.00,14.06
6967.00,14.13
6966.00,14.20
6965.00,14.26
6964.00,14.32
6963.00,14.39
6962.00,14.45
6961.00,14.51
6960.00,14.58
6959.00,14.65
6958.00,14.73
6957.00,14.80
6956.00,14.87
6955.00,14.93
6954.00,14.98
6953.00,15.04
6952.00,15.09
6951.00,15.15
6950.00,15.21
6949.00,15.26
6948.00,15.31
6947.00,15.36
6946.00,15.41
6945.00,15.46
6944.00,15.50
6943.00,15.53
6942.00,15.56
6941.00,15.58
6940.00,15.59
6939.00,15.62
6938.00,15.64
6937.00,15.66
6936.00,15.68
6935.00,15.70
6934.00,15.71
6933.00,15.72
6932.00,15.71
6931.00,15.70
6930.00,15.69
6929.00,15.68
6928.00,15.66
6927.00,15.64
6926.00,15.59
6925.00,15.54
6924.00,15.49
6923.00,15.45
6922.00,15.39
6921.00,15.34
6920.00,15.27
6919.00,15.21
6918.00,15.14
6917.00,15.05
6916.00,14.96
6915.00,14.86
6914.00,14.77
6913.00,14.67
6912.00,14.57
6911.00,14.46
6910.00,14.35
6909.00,14.23
6908.00,14.11
6907.00,13.98
6906.00,13.85
6905.00,13.73
6904.00,13.60
6903.00,13.46
6902.00,13.33
6901.00,13.19
6900.00,13.04
6899.00,12.90
6898.00,12.76
6897.00,12.62
6896.00,12.47
6895.00,12.33
6894.00,12.19
6893.00,12.05
6892.00,11.91
6891.00,11.76
6890.00,11.61
6889.00,11.46
6888.00,11.31
6887.00,11.16
6886.00,11.02
6885.00,10.89
6884.00,10.76
6883.00,10.64
6882.00,10.51
6881.00,10.38
6880.00,10.25
6879.00,10.13
6878.00,10.01
6877.00,9.90
6876.00,9.80
6875.00,9.71
6874.00,9.62
6873.00,9.52
6872.00,9.42
6871.00,9.31
6870.00,9.19
6869.00,9.09
6868.00,8.99
6867.00,8.89
6866.00,8.80
6865.00,8.72
6864.00,8.65
6863.00,8.57
6862.00,8.50
6861.00,8.43
6860.00,8.37
6859.00,8.31
6858.00,8.26
6857.00,8.20
6856.00,8.14
6855.00,8.08
6854.00,8.03
6853.00,7.97
6852.00,7.92
6851.00,7.87
6850.00,7.82
6849.00,7.78
6848.00,7.74
6847.00,7.71
6846.00,7.68
6845.00,7.65
6844.00,7.62
6843.00,7.60
6842.00,7.58
6841.00,7.56
6840.00,7.54
6839.00,7.52
6838.00,7.51
6837.00,7.50
6836.00,7.49
6835.00,7.48
6834.00,7.47
6833.00,7.46
6832.00,7.46
6831.00,7.47
6830.00,7.47
6829.00,7.48
6828.00,7.49
6827.00,7.49
6826.00,7.49
6825.00,7.50
6824.00,7.51
6823.00,7.52
6822.00,7.53
6821.00,7.55
6820.00,7.57
6819.00,7.59
6818.00,7.61
6817.00,7.63
6816.00,7.65
6815.00,7.67
6814.00,7.70
6813.00,7.73
6812.00,7.77
6811.00,7.80
6810.00,7.84
6809.00,7.86
6808.00,7.89
6807.00,7.92
6806.00,7.95
6805.00,7.99
6804.00,8.02
6803.00,8.06
6802.00,8.10
6801.00,8.14
6800.00,8.19
6799.00,8.23
6798.00,8.27
6797.00,8.32
6796.00,8.36
6795.00,8.41
6794.00,8.45
6793.00,8.50
6792.00,8.54
6791.00,8.59
6790.00,8.64
6789.00,8.69
6788.00,8.74
6787.00,8.79
6786.00,8.84
6785.00,8.90
6784.00,8.96
6783.00,9.01
6782.00,9.08
6781.00,9.13
6780.00,9.19
6779.00,9.24
6778.00,9.29
6777.00,9.35
6776.00,9.41
6775.00,9.47
6774.00,9.54
6773.00,9.60
6772.00,9.66
6771.00,9.72
6770.00,9.78
6769.00,9.83
6768.00,9.89
6767.00,9.96
6766.00,10.03
6765.00,10.10
6764.00,10.17
6763.00,10.24
6762.00,10.31
6761.00,10.37
6760.00,10.43
6759.00,10.49
6758.00,10.55
6757.00,10.62
6756.00,10.68
6755.00,10.75
6754.00,10.81
6753.00,10.88
6752.00,10.94
6751.00,11.01
6750.00,11.08
6749.00,11.15
6748.00,11.23
6747.00,11.31
6746.00,11.39
6745.00,11.48
6744.00,11.57
6743.00,11.65
6742.00,11.73
6741.00,11.80
6740.00,11.87
6739.00,11.94
6738.00,12.00
6737.00,12.06
6736.00,12.13
6735.00,12.21
6734.00,12.30
6733.00,12.38
6732.00,12.46
6731.00,12.53
6730.00,12.61
6729.00,12.68
6728.00,12.76
6727.00,12.83
6726.00,12.91
6725.00,13.00
6724.00,13.08
6723.00,13.16
6722.00,13.23
6721.00,13.29
6720.00,13.35
6719.00,13.42
6718.00,13.48
6717.00,13.54
6716.00,13.60
6715.00,13.67
6714.00,13.73
6713.00,13.78
6712.00,13.83
6711.00,13.88
6710.00,13.92
6709.00,13.97
6708.00,14.01
6707.00,14.05
6706.00,14.09
6705.00,14.12
6704.00,14.15
6703.00,14.17
6702.00,14.19
6701.00,14.20
6700.00,14.20
6699.00,14.19
6698.00,14.19
6697.00,14.19
6696.00,14.17
6695.00,14.16
6694.00,14.14
6693.00,14.12
6692.00,14.09
6691.00,14.05
6690.00,14.01
6689.00,13.96
6688.00,13.90
6687.00,13.84
6686.00,13.77
6685.00,13.70
6684.00,13.61
6683.00,13.53
6682.00,13.44
6681.00,13.35
6680.00,13.25
6679.00,13.16
6678.00,13.06
6677.00,12.95
6676.00,12.84
6675.00,12.74
6674.00,12.63
6673.00,12.51
6672.00,12.40
6671.00,12.28
6670.00,12.16
6669.00,12.03
6668.00,11.90
6667.00,11.77
6666.00,11.63
6665.00,11.50
6664.00,11.37
6663.00,11.24
6662.00,11.11
6661.00,10.98
6660.00,10.85
6659.00,10.72
6658.00,10.60
6657.00,10.47
6656.00,10.35
6655.00,10.23
6654.00,10.11
6653.00,10.00
6652.00,9.89
6651.00,9.78
6650.00,9.67
6649.00,9.56
6648.00,9.45
6647.00,9.35
6646.00,9.26
6645.00,9.16
6644.00,9.06
6643.00,8.96
6642.00,8.87
6641.00,8.77
6640.00,8.68
6639.00,8.59
6638.00,8.51
6637.00,8.43
6636.00,8.36
6635.00,8.29
6634.00,8.22
6633.00,8.15
6632.00,8.09
6631.00,8.03
6630.00,7.97
6629.00,7.92
6628.00,7.87
6627.00,7.82
6626.00,7.77
6625.00,7.72
6624.00,7.68
6623.00,7.64
6622.00,7.61
6621.00,7.58
6620.00,7.55
6619.00,7.52
6618.00,7.50
6617.00,7.47
6616.00,7.44
6615.00,7.42
6614.00,7.40
6613.00,7.39
6612.00,7.38
6611.00,7.38
6610.00,7.37
6609.00,7.37
6608.00,7.36
6607.00,7.36
6606.00,7.36
6605.00,7.37
6604.00,7.38
6603.00,7.39
6602.00,7.40
6601.00,7.42
6600.00,7.43
6599.00,7.44
6598.00,7.46
6597.00,7.48
6596.00,7.50
6595.00,7.52
6594.00,7.54
6593.00,7.56
6592.00,7.58
6591.00,7.61
6590.00,7.64
6589.00,7.67
6588.00,7.71
6587.00,7.74
6586.00,7.79
6585.00,7.83
6584.00,7.87
6583.00,7.91
6582.00,7.95
6581.00,7.99
6580.00,8.03
6579.00,8.07
6578.00,8.11
6577.00,8.15
6576.00,8.19
6575.00,8.24
6574.00,8.28
6573.00,8.33
6572.00,8.38
6571.00,8.44
6570.00,8.50
6569.00,8.55
6568.00,8.61
6567.00,8.67
6566.00,8.72
6565.00,8.78
6564.00,8.84
6563.00,8.90
6562.00,8.96
6561.00,9.01
6560.00,9.07
6559.00,9.13
6558.00,9.18
6557.00,9.23
6556.00,9.29
6555.00,9.36
6554.00,9.43
6553.00,9.51
6552.00,9.57
6551.00,9.64
6550.00,9.70
6549.00,9.77
6548.00,9.83
6547.00,9.90
6546.00,9.97
6545.00,10.03
6544.00,10.11
6543.00,10.18
6542.00,10.25
6541.00,10.32
6540.00,10.39
6539.00,10.47
6538.00,10.54
6537.00,10.62
6536.00,10.68
6535.00,10.75
6534.00,10.82
6533.00,10.89
6532.00,10.96
6531.00,11.05
6530.00,11.13
6529.00,11.21
6528.00,11.29
6527.00,11.36
6526.00,11.44
6525.00,11.51
6524.00,11.58
6523.00,11.66
6522.00,11.74
6521.00,11.83
6520.00,11.91
6519.00,11.99
6518.00,12.07
6517.00,12.15
6516.00,12.22
6515.00,12.30
6514.00,12.38
6513.00,12.46
6512.00,12.54
6511.00,12.62
6510.00,12.70
6509.00,12.79
6508.00,12.87
6507.00,12.95
6506.00,13.03
6505.00,13.11
6504.00,13.19
6503.00,13.26
6502.00,13.34
6501.00,13.42
6500.00,13.49
6499.00,13.57
6498.00,13.65
6497.00,13.73
6496.00,13.80
6495.00,13.88
6494.00,13.95
6493.00,14.02
6492.00,14.09
6491.00,14.16
6490.00,14.22
6489.00,14.29
6488.00,14.35
6487.00,14.42
6486.00,14.49
6485.00,14.55
6484.00,14.61
6483.00,14.68
6482.00,14.73
6481.00,14.78
6480.00,14.82
6479.00,14.87
6478.00,14.92
6477.00,14.96
6476.00,15.01
6475.00,15.05
6474.00,15.07
6473.00,15.09
6472.00,15.10
6471.00,15.11
6470.00,15.12
6469.00,15.12
6468.00,15.12
6467.00,15.11
6466.00,15.10
6465.00,15.08
6464.00,15.05
6463.00,15.02
6462.00,14.98
6461.00,14.93
6460.00,14.89
6459.00,14.84
6458.00,14.78
6457.00,14.71
6456.00,14.63
6455.00,14.54
6454.00,14.45
6453.00,14.35
6452.00,14.24
6451.00,14.14
6450.00,14.03
6449.00,13.92
6448.00,13.81
6447.00,13.68
6446.00,13.56
6445.00,13.43
6444.00,13.29
6443.00,13.16
6442.00,13.02
6441.00,12.89
6440.00,12.75
6439.00,12.61
6438.00,12.46
6437.00,12.31
6436.00,12.16
6435.00,12.02
6434.00,11.87
6433.00,11.72
6432.00,11.57
6431.00,11.41
6430.00,11.26
6429.00,11.11
6428.00,10.95
6427.00,10.80
6426.00,10.66
6425.00,10.52
6424.00,10.38
6423.00,10.24
6422.00,10.10
6421.00,9.97
6420.00,9.84
6419.00,9.71
6418.00,9.59
6417.00,9.47
6416.00,9.36
6415.00,9.24
6414.00,9.13
6413.00,9.01
6412.00,8.90
6411.00,8.79
6410.00,8.68
6409.00,8.57
6408.00,8.46
6407.00,8.36
6406.00,8.27
6405.00,8.18
6404.00,8.10
6403.00,8.02
6402.00,7.94
6401.00,7.87
6400.00,7.80
6399.00,7.72
6398.00,7.65
6397.00,7.57
6396.00,7.50
6395.00,7.44
6394.00,7.38
6393.00,7.32
6392.00,7.27
6391.00,7.23
6390.00,7.19
6389.00,7.16
6388.00,7.12
6387.00,7.09
6386.00,7.05
6385.00,7.02
6384.00,6.99
6383.00,6.95
6382.00,6.92
6381.00,6.90
6380.00,6.88
6379.00,6.87
6378.00,6.86
6377.00,6.85
6376.00,6.84
6375.00,6.83
6374.00,6.82
6373.00,6.81
6372.00,6.81
6371.00,6.81
6370.00,6.82
6369.00,6.84
6368.00,6.85
6367.00,6.87
6366.00,6.88
6365.00,6.89
6364.00,6.91
6363.00,6.92
6362.00,6.93
6361.00,6.95
6360.00,6.96
6359.00,6.98
6358.00,7.01
6357.00,7.03
6356.00,7.06
6355.00,7.09
6354.00,7.13
6353.00,7.16
6352.00,7.19
6351.00,7.23
6350.00,7.26
6349.00,7.31
6348.00,7.35
6347.00,7.39
6346.00,7.43
6345.00,7.46
6344.00,7.50
6343.00,7.53
6342.00,7.57
6341.00,7.62
6340.00,7.67
6339.00,7.73
6338.00,7.78
6337.00,7.83
6336.00,7.89
6335.00,7.94
6334.00,7.99
6333.00,8.04
6332.00,8.09
6331.00,8.15
6330.00,8.22
6329.00,8.28
6328.00,8.33
6327.00,8.39
6326.00,8.45
6325.00,8.52
6324.00,8.58
6323.00,8.64
6322.00,8.70
6321.00,8.77
6320.00,8.84
6319.00,8.90
6318.00,8.96
6317.00,9.02
6316.00,9.09
6315.00,9.16
6314.00,9.23
6313.00,9.30
6312.00,9.37
6311.00,9.44
6310.00,9.51
6309.00,9.58
6308.00,9.65
6307.00,9.73
6306.00,9.81
6305.00,9.89
6304.00,9.97
6303.00,10.04
6302.00,10.12
6301.00,10.20
6300.00,10.28
6299.00,10.36
6298.00,10.44
6297.00,10.52
6296.00,10.60
6295.00,10.68
6294.00,10.77
6293.00,10.85
6292.00,10.94
6291.00,11.02
6290.00,11.11
6289.00,11.19
6288.00,11.28
6287.00,11.37
6286.00,11.46
6285.00,11.55
6284.00,11.65
6283.00,11.74
6282.00,11.83
6281.00,11.92
6280.00,12.01
6279.00,12.10
6278.00,12.19
6277.00,12.27
6276.00,12.36
6275.00,12.45
6274.00,12.54
6273.00,12.63
6272.00,12.73
6271.00,12.82
6270.00,12.92
6269.00,13.02
6268.00,13.11
6267.00,13.21
6266.00,13.30
6265.00,13.39
6264.00,13.49
6263.00,13.58
6262.00,13.67
6261.00,13.77
6260.00,13.86
6259.00,13.96
6258.00,14.04
6257.00,14.12
6256.00,14.20
6255.00,14.28
6254.00,14.36
6253.00,14.43
6252.00,14.51
6251.00,14.59
6250.00,14.66
6249.00,14.72
6248.00,14.78
6247.00,14.84
6246.00,14.89
6245.00,14.94
6244.00,14.99
6243.00,15.04
6242.00,15.08
6241.00,15.11
6240.00,15.14
6239.00,15.15
6238.00,15.16
6237.00,15.16
6236.00,15.16
6235.00,15.16
6234.00,15.15
6233.00,15.14
6232.00,15.12
6231.00,15.09
6230.00,15.06
6229.00,15.02
6228.00,14.97
6227.00,14.92
6226.00,14.86
6225.00,14.79
6224.00,14.72
6223.00,14.65
6222.00,14.57
6221.00,14.48
6220.00,14.37
6219.00,14.26
6218.00,14.14
6217.00,14.02
6216.00,13.90
6215.00,13.78
6214.00,13.66
6213.00,13.53
6212.00,13.40
6211.00,13.26
6210.00,13.12
6209.00,12.97
6208.00,12.83
6207.00,12.69
6206.00,12.54
6205.00,12.39
6204.00,12.24
6203.00,12.08
6202.00,11.93
6201.00,11.77
6200.00,11.62
6199.00,11.47
6198.00,11.32
6197.00,11.18
6196.00,11.03
6195.00,10.89
6194.00,10.74
6193.00,10.59
6192.00,10.45
6191.00,10.32
6190.00,10.19
6189.00,10.07
6188.00,9.94
6187.00,9.82
6186.00,9.69
6185.00,9.56
6184.00,9.44
6183.00,9.32
6182.00,9.21
6181.00,9.10
6180.00,9.01
6179.00,8.91
6178.00,8.81
6177.00,8.72
6176.00,8.62
6175.00,8.53
6174.00,8.44
6173.00,8.37
6172.00,8.29
6171.00,8.22
6170.00,8.15
6169.00,8.07
6168.00,8.00
6167.00,7.93
6166.00,7.87
6165.00,7.82
6164.00,7.77
6163.00,7.73
6162.00,7.68
6161.00,7.64
6160.00,7.60
6159.00,7.56
6158.00,7.52
6157.00,7.49
6156.00,7.46
6155.00,7.44
6154.00,7.42
6153.00,7.40
6152.00,7.38
6151.00,7.36
6150.00,7.35
6149.00,7.34
6148.00,7.33
6147.00,7.32
6146.00,7.31
6145.00,7.31
6144.00,7.32
6143.00,7.33
6142.00,7.34
6141.00,7.35
6140.00,7.36
6139.00,7.37
6138.00,7.38
6137.00,7.39
6136.00,7.40
6135.00,7.42
6134.00,7.45
6133.00,7.47
6132.00,7.50
6131.00,7.53
6130.00,7.55
6129.00,7.58
6128.00,7.61
6127.00,7.64
6126.00,7.68
6125.00,7.72
6124.00,7.75
6123.00,7.79
6122.00,7.83
6121.00,7.87
6120.00,7.92
6119.00,7.97
6118.00,8.02
6117.00,8.07
6116.00,8.13
6115.00,8.18
6114.00,8.23
6113.00,8.28
6112.00,8.33
6111.00,8.39
6110.00,8.44
6109.00,8.50
6108.00,8.55
6107.00,8.60
6106.00,8.66
6105.00,8.73
6104.00,8.79
6103.00,8.86
6102.00,8.92
6101.00,8.99
6100.00,9.05
6099.00,9.11
6098.00,9.18
6097.00,9.24
6096.00,9.31
6095.00,9.37
6094.00,9.44
6093.00,9.51
6092.00,9.58
6091.00,9.65
6090.00,9.73
6089.00,9.80
6088.00,9.87
6087.00,9.94
6086.00,10.00
6085.00,10.07
6084.00,10.13
6083.00,10.20
6082.00,10.26
6081.00,10.33
6080.00,10.41
6079.00,10.49
6078.00,10.57
6077.00,10.65
6076.00,10.72
6075.00,10.80
6074.00,10.88
6073.00,10.95
6072.00,11.03
6071.00,11.10
6070.00,11.18
6069.00,11.25
6068.00,11.33
6067.00,11.41
6066.00,11.48
6065.00,11.56
6064.00,11.64
6063.00,11.73
6062.00,11.81
6061.00,11.89
6060.00,11.97
6059.00,12.06
6058.00,12.14
6057.00,12.23
6056.00,12.31
6055.00,12.40
6054.00,12.48
6053.00,12.57
6052.00,12.65
6051.00,12.74
6050.00,12.82
6049.00,12.91
6048.00,13.01
6047.00,13.11
6046.00,13.21
6045.00,13.30
6044.00,13.40
6043.00,13.49
6042.00,13.59
6041.00,13.68
6040.00,13.77
6039.00,13.87
6038.00,13.96
6037.00,14.06
6036.00,14.15
6035.00,14.24
6034.00,14.33
6033.00,14.43
6032.00,14.52
6031.00,14.62
6030.00,14.72
6029.00,14.81
6028.00,14.91
6027.00,15.00
6026.00,15.08
6025.00,15.17
6024.00,15.25
6023.00,15.33
6022.00,15.41
6021.00,15.49
6020.00,15.57
6019.00,15.64
6018.00,15.71
6017.00,15.77
6016.00,15.83
6015.00,15.88
6014.00,15.93
6013.00,15.98
6012.00,16.03
6011.00,16.07
6010.00,16.10
6009.00,16.13
6008.00,16.14
6007.00,16.16
6006.00,16.16
6005.00,16.16
6004.00,16.15
6003.00,16.14
6002.00,16.12
6001.00,16.09
6000.00,16.05
5999.00,16.01
5998.00,15.96
5997.00,15.90
5996.00,15.83
5995.00,15.75
5994.00,15.66
5993.00,15.57
5992.00,15.47
5991.00,15.37
5990.00,15.26
5989.00,15.15
5988.00,15.02
5987.00,14.89
5986.00,14.75
5985.00,14.60
5984.00,14.45
5983.00,14.30
5982.00,14.14
5981.00,13.98
5980.00,13.82
5979.00,13.65
5978.00,13.47
5977.00,13.29
5976.00,13.12
5975.00,12.94
5974.00,12.77
5973.00,12.60
5972.00,12.42
5971.00,12.25
5970.00,12.07
5969.00,11.89
5968.00,11.71
5967.00,11.54
5966.00,11.36
5965.00,11.19
5964.00,11.02
5963.00,10.85
5962.00,10.69
5961.00,10.53
5960.00,10.37
5959.00,10.21
5958.00,10.06
5957.00,9.90
5956.00,9.75
5955.00,9.60
5954.00,9.46
5953.00,9.32
5952.00,9.18
5951.00,9.05
5950.00,8.93
5949.00,8.81
5948.00,8.69
5947.00,8.58
5946.00,8.46
5945.00,8.35
5944.00,8.24
5943.00,8.13
5942.00,8.04
5941.00,7.94
5940.00,7.84
5939.00,7.75
5938.00,7.66
5937.00,7.57
5936.00,7.49
5935.00,7.42
5934.00,7.35
5933.00,7.28
5932.00,7.22
5931.00,7.16
5930.00,7.10
5929.00,7.04
5928.00,6.99
5927.00,6.94
5926.00,6.89
5925.00,6.85
5924.00,6.81
5923.00,6.78
5922.00,6.74
5921.00,6.72
5920.00,6.69
5919.00,6.66
5918.00,6.64
5917.00,6.62
5916.00,6.60
5915.00,6.58
5914.00,6.57
5913.00,6.56
5912.00,6.55
5911.00,6.55
5910.00,6.55
5909.00,6.55
5908.00,6.55
5907.00,6.56
5906.00,6.56
5905.00,6.57
5904.00,6.59
5903.00,6.60
5902.00,6.62
5901.00,6.64
5900.00,6.66
5899.00,6.68
5898.00,6.71
5897.00,6.73
5896.00,6.76
5895.00,6.79
5894.00,6.82
5893.00,6.85
5892.00,6.88
5891.00,6.91
5890.00,6.95
5889.00,7.00
5888.00,7.05
5887.00,7.10
5886.00,7.14
5885.00,7.19
5884.00,7.24
5883.00,7.28
5882.00,7.33
5881.00,7.39
5880.00,7.44
5879.00,7.50
5878.00,7.56
5877.00,7.61
5876.00,7.66
5875.00,7.72
5874.00,7.78
5873.00,7.84
5872.00,7.90
5871.00,7.96
5870.00,8.02
5869.00,8.09
5868.00,8.15
5867.00,8.23
5866.00,8.30
5865.00,8.38
5864.00,8.45
5863.00,8.53
5862.00,8.60
5861.00,8.66
5860.00,8.73
5859.00,8.80
5858.00,8.88
5857.00,8.96
5856.00,9.04
5855.00,9.12
5854.00,9.20
5853.00,9.28
5852.00,9.36
5851.00,9.44
5850.00,9.52
5849.00,9.61
5848.00,9.70
5847.00,9.79
5846.00,9.88
5845.00,9.97
5844.00,10.05
5843.00,10.14
5842.00,10.22
5841.00,10.31
5840.00,10.40
5839.00,10.49
5838.00,10.59
5837.00,10.69
5836.00,10.79
5835.00,10.89
5834.00,10.98
5833.00,11.08
5832.00,11.17
5831.00,11.26
5830.00,11.36
5829.00,11.45
5828.00,11.55
5827.00,11.66
5826.00,11.77
5825.00,11.87
5824.00,11.98
5823.00,12.08
5822.00,12.18
5821.00,12.29
5820.00,12.39
5819.00,12.49
5818.00,12.60
5817.00,12.71
5816.00,12.82
5815.00,12.93
5814.00,13.04
5813.00,13.14
5812.00,13.25
5811.00,13.36
5810.00,13.47
5809.00,13.59
5808.00,13.70
5807.00,13.82
5806.00,13.93
5805.00,14.04
5804.00,14.16
5803.00,14.26
5802.00,14.37
5801.00,14.48
5800.00,14.59
5799.00,14.70
5798.00,14.81
5797.00,14.92
5796.00,15.03
5795.00,15.14
5794.00,15.25
5793.00,15.35
5792.00,15.45
5791.00,15.55
5790.00,15.64
5789.00,15.73
5788.00,15.82
5787.00,15.90
5786.00,15.97
5785.00,16.04
5784.00,16.11
5783.00,16.18
5782.00,16.24
5781.00,16.29
5780.00,16.34
5779.00,16.38
5778.00,16.41
5777.00,16.44
5776.00,16.46
5775.00,16.48
5774.00,16.48
5773.00,16.48
5772.00,16.47
5771.00,16.44
5770.00,16.41
5769.00,16.37
5768.00,16.32
5767.00,16.26
5766.00,16.20
5765.00,16.12
5764.00,16.04
5763.00,15.94
5762.00,15.84
5761.00,15.73
5760.00,15.60
5759.00,15.48
5758.00,15.34
5757.00,15.20
5756.00,15.05
5755.00,14.91
5754.00,14.75
5753.00,14.59
5752.00,14.42
5751.00,14.24
5750.00,14.06
5749.00,13.87
5748.00,13.69
5747.00,13.51
5746.00,13.32
5745.00,13.13
5744.00,12.93
5743.00,12.74
5742.00,12.54
5741.00,12.34
5740.00,12.15
5739.00,11.96
5738.00,11.77
5737.00,11.58
5736.00,11.40
5735.00,11.22
5734.00,11.04
5733.00,10.87
5732.00,10.69
5731.00,10.52
5730.00,10.35
5729.00,10.18
5728.00,10.01
5727.00,9.85
5726.00,9.70
5725.00,9.54
5724.00,9.39
5723.00,9.25
5722.00,9.11
5721.00,8.97
5720.00,8.84
5719.00,8.71
5718.00,8.58
5717.00,8.46
5716.00,8.34
5715.00,8.22
5714.00,8.11
5713.00,7.99
5712.00,7.89
5711.00,7.79
5710.00,7.69
5709.00,7.59
5708.00,7.50
5707.00,7.42
5706.00,7.33
5705.00,7.25
5704.00,7.17
5703.00,7.10
5702.00,7.04
5701.00,6.98
5700.00,6.91
5699.00,6.85
5698.00,6.79
5697.00,6.74
5696.00,6.68
5695.00,6.63
5694.00,6.58
5693.00,6.54
5692.00,6.50
5691.00,6.47
5690.00,6.44
5689.00,6.41
5688.00,6.38
5687.00,6.35
5686.00,6.33
5685.00,6.30
5684.00,6.28
5683.00,6.27
5682.00,6.25
5681.00,6.25
5680.00,6.24
5679.00,6.24
5678.00,6.24
5677.00,6.24
5676.00,6.24
5675.00,6.24
5674.00,6.24
5673.00,6.25
5672.00,6.26
5671.00,6.28
5670.00,6.30
5669.00,6.31
5668.00,6.34
5667.00,6.36
5666.00,6.39
5665.00,6.42
5664.00,6.44
5663.00,6.47
5662.00,6.50
5661.00,6.53
5660.00,6.56
5659.00,6.60
5658.00,6.65
5657.00,6.69
5656.00,6.73
5655.00,6.78
5654.00,6.82
5653.00,6.87
5652.00,6.93
5651.00,6.98
5650.00,7.04
5649.00,7.09
5648.00,7.15
5647.00,7.21
5646.00,7.26
5645.00,7.33
5644.00,7.39
5643.00,7.46
5642.00,7.52
5641.00,7.59
5640.00,7.66
5639.00,7.73
5638.00,7.80
5637.00,7.87
5636.00,7.94
5635.00,8.02
5634.00,8.09
5633.00,8.17
5632.00,8.25
5631.00,8.32
5630.00,8.40
5629.00,8.48
5628.00,8.56
5627.00,8.64
5626.00,8.73
5625.00,8.81
5624.00,8.90
5623.00,8.99
5622.00,9.08
5621.00,9.16
5620.00,9.25
5619.00,9.34
5618.00,9.44
5617.00,9.53
5616.00,9.63
5615.00,9.72
5614.00,9.82
5613.00,9.91
5612.00,10.01
5611.00,10.10
5610.00,10.21
5609.00,10.31
5608.00,10.41
5607.00,10.51
5606.00,10.61
5605.00,10.71
5604.00,10.81
5603.00,10.92
5602.00,11.03
5601.00,11.14
5600.00,11.25
5599.00,11.36
5598.00,11.46
5597.00,11.57
5596.00,11.67
5595.00,11.77
5594.00,11.88
5593.00,11.99
5592.00,12.11
5591.00,12.23
5590.00,12.35
5589.00,12.47
5588.00,12.58
5587.00,12.70
5586.00,12.82
5585.00,12.94
5584.00,13.06
5583.00,13.18
5582.00,13.30
5581.00,13.43
5580.00,13.55
5579.00,13.67
5578.00,13.80
5577.00,13.92
5576.00,14.04
5575.00,14.17
5574.00,14.29
5573.00,14.41
5572.00,14.53
5571.00,14.65
5570.00,14.78
5569.00,14.90
5568.00,15.02
5567.00,15.14
5566.00,15.26
5565.00,15.38
5564.00,15.49
5563.00,15.60
5562.00,15.72
5561.00,15.83
5560.00,15.93
5559.00,16.04
5558.00,16.14
5557.00,16.24
5556.00,16.34
5555.00,16.43
5554.00,16.51
5553.00,16.60
5552.00,16.67
5551.00,16.75
5550.00,16.82
5549.00,16.88
5548.00,16.93
5547.00,16.97
5546.00,17.01
5545.00,17.03
5544.00,17.05
5543.00,17.07
5542.00,17.07
5541.00,17.07
5540.00,17.05
5539.00,17.03
5538.00,16.99
5537.00,16.95
5536.00,16.89
5535.00,16.83
5534.00,16.76
5533.00,16.68
5532.00,16.59
5531.00,16.49
5530.00,16.38
5529.00,16.25
5528.00,16.12
5527.00,15.97
5526.00,15.82
5525.00,15.67
5524.00,15.51
5523.00,15.34
5522.00,15.17
5521.00,14.99
5520.00,14.80
5519.00,14.61
5518.00,14.42
5517.00,14.22
5516.00,14.02
5515.00,13.82
5514.00,13.61
5513.00,13.40
5512.00,13.20
5511.00,12.99
5510.00,12.78
5509.00,12.58
5508.00,12.37
5507.00,12.17
5506.00,11.96
5505.00,11.76
5504.00,11.56
5503.00,11.36
5502.00,11.17
5501.00,10.98
5500.00,10.79
5499.00,10.61
5498.00,10.43
5497.00,10.25
5496.00,10.07
5495.00,9.90
5494.00,9.73
5493.00,9.57
5492.00,9.41
5491.00,9.25
5490.00,9.09
5489.00,8.94
5488.00,8.80
5487.00,8.66
5486.00,8.51
5485.00,8.38
5484.00,8.24
5483.00,8.11
5482.00,7.99
5481.00,7.87
5480.00,7.76
5479.00,7.65
5478.00,7.55
5477.00,7.45
5476.00,7.35
5475.00,7.26
5474.00,7.17
5473.00,7.08
5472.00,6.99
5471.00,6.90
5470.00,6.82
5469.00,6.74
5468.00,6.67
5467.00,6.60
5466.00,6.53
5465.00,6.47
5464.00,6.42
5463.00,6.36
5462.00,6.31
5461.00,6.26
5460.00,6.21
5459.00,6.16
5458.00,6.12
5457.00,6.08
5456.00,6.04
5455.00,6.00
5454.00,5.97
5453.00,5.94
5452.00,5.92
5451.00,5.90
5450.00,5.89
5449.00,5.87
5448.00,5.86
5447.00,5.86
5446.00,5.85
5445.00,5.85
5444.00,5.84
5443.00,5.84
5442.00,5.85
5441.00,5.85
5440.00,5.85
5439.00,5.86
5438.00,5.87
5437.00,5.89
5436.00,5.91
5435.00,5.93
5434.00,5.95
5433.00,5.97
5432.00,6.00
5431.00,6.03
5430.00,6.07
5429.00,6.10
5428.00,6.13
5427.00,6.16
5426.00,6.19
5425.00,6.22
5424.00,6.26
5423.00,6.30
5422.00,6.35
5421.00,6.40
5420.00,6.46
5419.00,6.51
5418.00,6.57
5417.00,6.63
5416.00,6.69
5415.00,6.75
5414.00,6.81
5413.00,6.87
5412.00,6.93
5411.00,7.00
5410.00,7.06
5409.00,7.12
5408.00,7.19
5407.00,7.26
5406.00,7.32
5405.00,7.39
5404.00,7.46
5403.00,7.54
5402.00,7.61
5401.00,7.69
5400.00,7.77
5399.00,7.86
5398.00,7.95
5397.00,8.03
5396.00,8.12
5395.00,8.21
5394.00,8.30
5393.00,8.38
5392.00,8.46
5391.00,8.54
5390.00,8.63
5389.00,8.72
5388.00,8.81
5387.00,8.90
5386.00,9.00
5385.00,9.09
5384.00,9.19
5383.00,9.29
5382.00,9.39
5381.00,9.49
5380.00,9.59
5379.00,9.68
5378.00,9.79
5377.00,9.89
5376.00,9.99
5375.00,10.09
5374.00,10.19
5373.00,10.29
5372.00,10.39
5371.00,10.50
5370.00,10.60
5369.00,10.71
5368.00,10.81
5367.00,10.92
5366.00,11.03
5365.00,11.14
5364.00,11.25
5363.00,11.36
5362.00,11.47
5361.00,11.59
5360.00,11.70
5359.00,11.82
5358.00,11.94
5357.00,12.06
5356.00,12.18
5355.00,12.30
5354.00,12.42
5353.00,12.55
5352.00,12.67
5351.00,12.80
5350.00,12.93
5349.00,13.05
5348.00,13.18
5347.00,13.30
5346.00,13.43
5345.00,13.56
5344.00,13.69
5343.00,13.83
5342.00,13.96
5341.00,14.08
5340.00,14.19
5339.00,14.31
5338.00,14.43
5337.00,14.55
5336.00,14.67
5335.00,14.79
5334.00,14.91
5333.00,15.02
5332.00,15.13
5331.00,15.23
5330.00,15.34
5329.00,15.44
5328.00,15.54
5327.00,15.64
5326.00,15.74
5325.00,15.84
5324.00,15.93
5323.00,16.02
5322.00,16.09
5321.00,16.16
5320.00,16.23
5319.00,16.29
5318.00,16.34
5317.00,16.39
5316.00,16.43
5315.00,16.47
5314.00,16.50
5313.00,16.52
5312.00,16.53
5311.00,16.54
5310.00,16.53
5309.00,16.51
5308.00,16.48
5307.00,16.44
5306.00,16.39
5305.00,16.33
5304.00,16.25
5303.00,16.17
5302.00,16.07
5301.00,15.95
5300.00,15.83
5299.00,15.70
5298.00,15.56
5297.00,15.41
5296.00,15.25
5295.00,15.09
5294.00,14.92
5293.00,14.74
5292.00,14.55
5291.00,14.36
5290.00,14.16
5289.00,13.95
5288.00,13.73
5287.00,13.52
5286.00,13.30
5285.00,13.08
5284.00,12.86
5283.00,12.63
5282.00,12.41
5281.00,12.19
5280.00,11.96
5279.00,11.74
5278.00,11.51
5277.00,11.28
5276.00,11.06
5275.00,10.85
5274.00,10.64
5273.00,10.44
5272.00,10.24
5271.00,10.04
5270.00,9.85
5269.00,9.66
5268.00,9.48
5267.00,9.30
5266.00,9.12
5265.00,8.95
5264.00,8.77
5263.00,8.60
5262.00,8.43
5261.00,8.27
5260.00,8.12
5259.00,7.97
5258.00,7.82
5257.00,7.68
5256.00,7.55
5255.00,7.42
5254.00,7.29
5253.00,7.16
5252.00,7.05
5251.00,6.93
5250.00,6.83
5249.00,6.72
5248.00,6.62
5247.00,6.53
5246.00,6.43
5245.00,6.34
5244.00,6.25
5243.00,6.17
5242.00,6.08
5241.00,6.01
5240.00,5.93
5239.00,5.86
5238.00,5.80
5237.00,5.73
5236.00,5.67
5235.00,5.62
5234.00,5.56
5233.00,5.51
5232.00,5.46
5231.00,5.42
5230.00,5.37
5229.00,5.34
5228.00,5.31
5227.00,5.28
5226.00,5.25
5225.00,5.23
5224.00,5.20
5223.00,5.17
5222.00,5.15
5221.00,5.13
5220.00,5.12
5219.00,5.10
5218.00,5.09
5217.00,5.08
5216.00,5.07
5215.00,5.06
5214.00,5.06
5213.00,5.06
5212.00,5.07
5211.00,5.08
5210.00,5.09
5209.00,5.10
5208.00,5.11
5207.00,5.13
5206.00,5.14
5205.00,5.16
5204.00,5.18
5203.00,5.20
5202.00,5.22
5201.00,5.25
5200.00,5.27
5199.00,5.30
5198.00,5.34
5197.00,5.37
5196.00,5.41
5195.00,5.45
5194.00,5.49
5193.00,5.53
5192.00,5.58
5191.00,5.63
5190.00,5.68
5189.00,5.73
5188.00,5.79
5187.00,5.84
5186.00,5.90
5185.00,5.96
5184.00,6.03
5183.00,6.09
5182.00,6.16
5181.00,6.23
5180.00,6.30
5179.00,6.36
5178.00,6.43
5177.00,6.50
5176.00,6.57
5175.00,6.65
5174.00,6.73
5173.00,6.81
5172.00,6.89
5171.00,6.97
5170.00,7.05
5169.00,7.13
5168.00,7.22
5167.00,7.31
5166.00,7.40
5165.00,7.50
5164.00,7.59
5163.00,7.68
5162.00,7.77
5161.00,7.86
5160.00,7.95
5159.00,8.05
5158.00,8.15
5157.00,8.25
5156.00,8.35
5155.00,8.45
5154.00,8.56
5153.00,8.66
5152.00,8.76
5151.00,8.86
5150.00,8.97
5149.00,9.07
5148.00,9.18
5147.00,9.28
5146.00,9.39
5145.00,9.49
5144.00,9.60
5143.00,9.71
5142.00,9.83
5141.00,9.94
5140.00,10.05
5139.00,10.16
5138.00,10.28
5137.00,10.39
5136.00,10.50
5135.00,10.62
5134.00,10.74
5133.00,10.85
5132.00,10.97
5131.00,11.09
5130.00,11.21
5129.00,11.33
5128.00,11.45
5127.00,11.57
5126.00,11.69
5125.00,11.82
5124.00,11.94
5123.00,12.07
5122.00,12.20
5121.00,12.32
5120.00,12.45
5119.00,12.58
5118.00,12.71
5117.00,12.84
5116.00,12.97
5115.00,13.10
5114.00,13.22
5113.00,13.35
5112.00,13.48
5111.00,13.61
5110.00,13.75
5109.00,13.88
5108.00,14.01
5107.00,14.14
5106.00,14.27
5105.00,14.40
5104.00,14.53
5103.00,14.65
5102.00,14.78
5101.00,14.90
5100.00,15.03
5099.00,15.15
5098.00,15.27
5097.00,15.38
5096.00,15.49
5095.00,15.60
5094.00,15.71
5093.00,15.81
5092.00,15.90
5091.00,15.99
5090.00,16.08
5089.00,16.15
5088.00,16.22
5087.00,16.29
5086.00,16.35
5085.00,16.39
5084.00,16.44
5083.00,16.47
5082.00,16.49
5081.00,16.50
5080.00,16.51
5079.00,16.50
5078.00,16.48
5077.00,16.45
5076.00,16.40
5075.00,16.34
5074.00,16.28
5073.00,16.19
5072.00,16.10
5071.00,16.00
5070.00,15.88
5069.00,15.75
5068.00,15.61
5067.00,15.46
5066.00,15.30
5065.00,15.13
5064.00,14.95
5063.00,14.76
5062.00,14.56
5061.00,14.35
5060.00,14.14
5059.00,13.92
5058.00,13.69
5057.00,13.46
5056.00,13.23
5055.00,13.00
5054.00,12.77
5053.00,12.54
5052.00,12.30
5051.00,12.06
5050.00,11.81
5049.00,11.57
5048.00,11.33
5047.00,11.09
5046.00,10.86
5045.00,10.63
5044.00,10.40
5043.00,10.18
5042.00,9.97
5041.00,9.76
5040.00,9.55
5039.00,9.34
5038.00,9.15
5037.00,8.95
5036.00,8.76
5035.00,8.57
5034.00,8.39
5033.00,8.21
5032.00,8.04
5031.00,7.87
5030.00,7.71
5029.00,7.55
5028.00,7.40
5027.00,7.25
5026.00,7.11
5025.00,6.97
5024.00,6.84
5023.00,6.71
5022.00,6.59
5021.00,6.47
5020.00,6.36
5019.00,6.25
5018.00,6.14
5017.00,6.04
5016.00,5.94
5015.00,5.84
5014.00,5.75
5013.00,5.66
5012.00,5.58
5011.00,5.50
5010.00,5.43
5009.00,5.36
5008.00,5.29
5007.00,5.22
5006.00,5.16
5005.00,5.10
5004.00,5.04
5003.00,4.99
5002.00,4.94
5001.00,4.89
5000.00,4.84
4999.00,4.80
4998.00,4.76
4997.00,4.72
4996.00,4.69
4995.00,4.66
4994.00,4.62
4993.00,4.60
4992.00,4.57
4991.00,4.55
4990.00,4.53
4989.00,4.51
4988.00,4.50
4987.00,4.48
4986.00,4.47
4985.00,4.46
4984.00,4.46
4983.00,4.46
4982.00,4.45
4981.00,4.45
4980.00,4.45
4979.00,4.45
4978.00,4.46
4977.00,4.46
4976.00,4.47
4975.00,4.48
4974.00,4.49
4973.00,4.51
4972.00,4.53
4971.00,4.55
4970.00,4.58
4969.00,4.61
4968.00,4.63
4967.00,4.66
4966.00,4.69
4965.00,4.73
4964.00,4.76
4963.00,4.80
4962.00,4.84
4961.00,4.88
4960.00,4.92
4959.00,4.96
4958.00,5.01
4957.00,5.06
4956.00,5.11
4955.00,5.17
4954.00,5.22
4953.00,5.28
4952.00,5.34
4951.00,5.40
4950.00,5.47
4949.00,5.53
4948.00,5.60
4947.00,5.67
4946.00,5.74
4945.00,5.81
4944.00,5.89
4943.00,5.96
4942.00,6.04
4941.00,6.12
4940.00,6.20
4939.00,6.29
4938.00,6.37
4937.00,6.45
4936.00,6.54
4935.00,6.63
4934.00,6.72
4933.00,6.80
4932.00,6.89
4931.00,6.98
4930.00,7.07
4929.00,7.17
4928.00,7.26
4927.00,7.36
4926.00,7.45
4925.00,7.55
4924.00,7.65
4923.00,7.74
4922.00,7.85
4921.00,7.95
4920.00,8.05
4919.00,8.16
4918.00,8.26
4917.00,8.36
4916.00,8.47
4915.00,8.57
4914.00,8.68
4913.00,8.79
4912.00,8.89
4911.00,9.00
4910.00,9.11
4909.00,9.22
4908.00,9.34
4907.00,9.45
4906.00,9.57
4905.00,9.68
4904.00,9.80
4903.00,9.91
4902.00,10.03
4901.00,10.14
4900.00,10.26
4899.00,10.38
4898.00,10.50
4897.00,10.62
4896.00,10.75
4895.00,10.87
4894.00,10.99
4893.00,11.12
4892.00,11.24
4891.00,11.37
4890.00,11.50
4889.00,11.63
4888.00,11.76
4887.00,11.89
4886.00,12.02
4885.00,12.15
4884.00,12.28
4883.00,12.41
4882.00,12.55
4881.00,12.68
4880.00,12.82
4879.00,12.95
4878.00,13.09
4877.00,13.22
4876.00,13.36
4875.00,13.50
4874.00,13.63
4873.00,13.77
4872.00,13.91
4871.00,14.04
4870.00,14.17
4869.00,14.30
4868.00,14.43
4867.00,14.56
4866.00,14.68
4865.00,14.80
4864.00,14.92
4863.00,15.04
4862.00,15.15
4861.00,15.25
4860.00,15.36
4859.00,15.45
4858.00,15.54
4857.00,15.62
4856.00,15.69
4855.00,15.76
4854.00,15.81
4853.00,15.86
4852.00,15.89
4851.00,15.92
4850.00,15.93
4849.00,15.92
4848.00,15.91
4847.00,15.88
4846.00,15.85
4845.00,15.79
4844.00,15.72
4843.00,15.64
4842.00,15.55
4841.00,15.44
4840.00,15.31
4839.00,15.18
4838.00,15.03
4837.00,14.88
4836.00,14.71
4835.00,14.52
4834.00,14.33
4833.00,14.13
4832.00,13.92
4831.00,13.69
4830.00,13.47
4829.00,13.23
4828.00,12.99
4827.00,12.75
4826.00,12.51
4825.00,12.27
4824.00,12.02
4823.00,11.77
4822.00,11.51
4821.00,11.26
4820.00,11.01
4819.00,10.76
4818.00,10.52
4817.00,10.27
4816.00,10.04
4815.00,9.80
4814.00,9.57
4813.00,9.35
4812.00,9.13
4811.00,8.91
4810.00,8.70
4809.00,8.49
4808.00,8.30
4807.00,8.10
4806.00,7.91
4805.00,7.73
4804.00,7.55
4803.00,7.37
4802.00,7.21
4801.00,7.05
4800.00,6.89
4799.00,6.74
4798.00,6.60
4797.00,6.46
4796.00,6.32
4795.00,6.19
4794.00,6.06
4793.00,5.94
4792.00,5.82
4791.00,5.71
4790.00,5.60
4789.00,5.50
4788.00,5.40
4787.00,5.30
4786.00,5.21
4785.00,5.12
4784.00,5.04
4783.00,4.96
4782.00,4.88
4781.00,4.81
4780.00,4.74
4779.00,4.68
4778.00,4.61
4777.00,4.55
4776.00,4.49
4775.00,4.43
4774.00,4.38
4773.00,4.33
4772.00,4.28
4771.00,4.24
4770.00,4.20
4769.00,4.16
4768.00,4.13
4767.00,4.10
4766.00,4.07
4765.00,4.04
4764.00,4.01
4763.00,3.98
4762.00,3.96
4761.00,3.94
4760.00,3.92
4759.00,3.90
4758.00,3.89
4757.00,3.87
4756.00,3.86
4755.00,3.85
4754.00,3.84
4753.00,3.83
4752.00,3.83
4751.00,3.83
4750.00,3.83
4749.00,3.83
4748.00,3.84
4747.00,3.84
4746.00,3.85
4745.00,3.87
4744.00,3.88
4743.00,3.89
4742.00,3.91
4741.00,3.92
4740.00,3.94
4739.00,3.96
4738.00,3.98
4737.00,4.00
4736.00,4.02
4735.00,4.05
4734.00,4.08
4733.00,4.12
4732.00,4.15
4731.00,4.20
4730.00,4.24
4729.00,4.28
4728.00,4.32
4727.00,4.37
4726.00,4.41
4725.00,4.46
4724.00,4.51
4723.00,4.56
4722.00,4.62
4721.00,4.68
4720.00,4.74
4719.00,4.80
4718.00,4.87
4717.00,4.93
4716.00,5.00
4715.00,5.08
4714.00,5.15
4713.00,5.22
4712.00,5.30
4711.00,5.38
4710.00,5.46
4709.00,5.54
4708.00,5.63
4707.00,5.71
4706.00,5.80
4705.00,5.88
4704.00,5.97
4703.00,6.06
4702.00,6.15
4701.00,6.24
4700.00,6.34
4699.00,6.44
4698.00,6.53
4697.00,6.63
4696.00,6.73
4695.00,6.82
4694.00,6.92
4693.00,7.02
4692.00,7.11
4691.00,7.21
4690.00,7.30
4689.00,7.40
4688.00,7.49
4687.00,7.59
4686.00,7.69
4685.00,7.79
4684.00,7.90
4683.00,8.00
4682.00,8.09
4681.00,8.19
4680.00,8.29
4679.00,8.40
4678.00,8.50
4677.00,8.61
4676.00,8.72
4675.00,8.83
4674.00,8.94
4673.00,9.06
4672.00,9.17
4671.00,9.28
4670.00,9.40
4669.00,9.52
4668.00,9.64
4667.00,9.76
4666.00,9.89
4665.00,10.02
4664.00,10.14
4663.00,10.27
4662.00,10.40
4661.00,10.54
4660.00,10.67
4659.00,10.81
4658.00,10.95
4657.00,11.10
4656.00,11.24
4655.00,11.38
4654.00,11.52
4653.00,11.67
4652.00,11.81
4651.00,11.96
4650.00,12.11
4649.00,12.26
4648.00,12.40
4647.00,12.55
4646.00,12.70
4645.00,12.85
4644.00,13.00
4643.00,13.15
4642.00,13.30
4641.00,13.45
4640.00,13.59
4639.00,13.74
4638.00,13.88
4637.00,14.02
4636.00,14.16
4635.00,14.30
4634.00,14.43
4633.00,14.56
4632.00,14.68
4631.00,14.80
4630.00,14.91
4629.00,15.02
4628.00,15.12
4627.00,15.21
4626.00,15.30
4625.00,15.37
4624.00,15.44
4623.00,15.49
4622.00,15.53
4621.00,15.56
4620.00,15.57
4619.00,15.58
4618.00,15.57
4617.00,15.54
4616.00,15.50
4615.00,15.45
4614.00,15.38
4613.00,15.29
4612.00,15.19
4611.00,15.08
4610.00,14.95
4609.00,14.81
4608.00,14.66
4607.00,14.49
4606.00,14.30
4605.00,14.11
4604.00,13.90
4603.00,13.69
4602.00,13.47
4601.00,13.23
4600.00,12.99
4599.00,12.74
4598.00,12.49
4597.00,12.23
4596.00,11.98
4595.00,11.72
4594.00,11.45
4593.00,11.19
4592.00,10.93
4591.00,10.67
4590.00,10.41
4589.00,10.15
4588.00,9.90
4587.00,9.65
4586.00,9.40
4585.00,9.16
4584.00,8.93
4583.00,8.70
4582.00,8.47
4581.00,8.25
4580.00,8.04
4579.00,7.83
4578.00,7.63
4577.00,7.43
4576.00,7.24
4575.00,7.06
4574.00,6.88
4573.00,6.71
4572.00,6.54
4571.00,6.38
4570.00,6.23
4569.00,6.08
4568.00,5.94
4567.00,5.80
4566.00,5.67
4565.00,5.54
4564.00,5.42
4563.00,5.30
4562.00,5.18
4561.00,5.07
4560.00,4.97
4559.00,4.87
4558.00,4.77
4557.00,4.68
4556.00,4.60
4555.00,4.51
4554.00,4.43
4553.00,4.36
4552.00,4.28
4551.00,4.22
4550.00,4.15
4549.00,4.08
4548.00,4.02
4547.00,3.96
4546.00,3.91
4545.00,3.85
4544.00,3.81
4543.00,3.76
4542.00,3.72
4541.00,3.68
4540.00,3.64
4539.00,3.60
4538.00,3.56
4537.00,3.53
4536.00,3.50
4535.00,3.47
4534.00,3.44
4533.00,3.42
4532.00,3.39
4531.00,3.37
4530.00,3.35
4529.00,3.33
4528.00,3.32
4527.00,3.30
4526.00,3.29
4525.00,3.28
4524.00,3.27
4523.00,3.26
4522.00,3.25
4521.00,3.25
4520.00,3.24
4519.00,3.24
4518.00,3.25
4517.00,3.25
4516.00,3.25
4515.00,3.26
4514.00,3.27
4513.00,3.28
4512.00,3.29
4511.00,3.30
4510.00,3.31
4509.00,3.32
4508.00,3.34
4507.00,3.36
4506.00,3.38
4505.00,3.41
4504.00,3.43
4503.00,3.46
4502.00,3.49
4501.00,3.52
4500.00,3.55
4499.00,3.58
4498.00,3.62
4497.00,3.65
4496.00,3.70
4495.00,3.74
4494.00,3.79
4493.00,3.84
4492.00,3.89
4491.00,3.94
4490.00,3.99
4489.00,4.05
4488.00,4.11
4487.00,4.17
4486.00,4.23
4485.00,4.30
4484.00,4.36
4483.00,4.43
4482.00,4.50
4481.00,4.58
4480.00,4.65
4479.00,4.73
4478.00,4.80
4477.00,4.88
4476.00,4.96
4475.00,5.05
4474.00,5.13
4473.00,5.22
4472.00,5.31
4471.00,5.40
4470.00,5.49
4469.00,5.58
4468.00,5.68
4467.00,5.77
4466.00,5.87
4465.00,5.96
4464.00,6.06
4463.00,6.16
4462.00,6.26
4461.00,6.36
4460.00,6.46
4459.00,6.56
4458.00,6.67
4457.00,6.77
4456.00,6.88
4455.00,6.98
4454.00,7.09
4453.00,7.20
4452.00,7.31
4451.00,7.42
4450.00,7.53
4449.00,7.64
4448.00,7.75
4447.00,7.87
4446.00,7.98
4445.00,8.09
4444.00,8.20
4443.00,8.32
4442.00,8.43
4441.00,8.55
4440.00,8.67
4439.00,8.79
4438.00,8.91
4437.00,9.03
4436.00,9.15
4435.00,9.28
4434.00,9.40
4433.00,9.53
4432.00,9.65
4431.00,9.77
4430.00,9.90
4429.00,10.03
4428.00,10.16
4427.00,10.28
4426.00,10.41
4425.00,10.54
4424.00,10.67
4423.00,10.80
4422.00,10.93
4421.00,11.07
4420.00,11.20
4419.00,11.33
4418.00,11.47
4417.00,11.60
4416.00,11.73
4415.00,11.86
4414.00,11.99
4413.00,12.12
4412.00,12.25
4411.00,12.38
4410.00,12.51
4409.00,12.63
4408.00,12.75
4407.00,12.87
4406.00,12.98
4405.00,13.10
4404.00,13.20
4403.00,13.31
4402.00,13.40
4401.00,13.49
4400.00,13.57
4399.00,13.65
4398.00,13.71
4397.00,13.77
4396.00,13.81
4395.00,13.84
4394.00,13.87
4393.00,13.88
4392.00,13.88
4391.00,13.87
4390.00,13.85
4389.00,13.81
4388.00,13.75
4387.00,13.69
4386.00,13.61
4385.00,13.51
4384.00,13.40
4383.00,13.28
4382.00,13.15
4381.00,13.00
4380.00,12.84
4379.00,12.68
4378.00,12.50
4377.00,12.31
4376.00,12.12
4375.00,11.91
4374.00,11.71
4373.00,11.50
4372.00,11.28
4371.00,11.07
4370.00,10.85
4369.00,10.63
4368.00,10.41
4367.00,10.19
4366.00,9.97
4365.00,9.75
4364.00,9.53
4363.00,9.32
4362.00,9.11
4361.00,8.90
4360.00,8.69
4359.00,8.48
4358.00,8.27
4357.00,8.07
4356.00,7.87
4355.00,7.68
4354.00,7.49
4353.00,7.30
4352.00,7.11
4351.00,6.93
4350.00,6.75
4349.00,6.57
4348.00,6.40
4347.00,6.24
4346.00,6.08
4345.00,5.93
4344.00,5.78
4343.00,5.64
4342.00,5.50
4341.00,5.36
4340.00,5.23
4339.00,5.11
4338.00,4.99
4337.00,4.87
4336.00,4.76
4335.00,4.65
4334.00,4.55
4333.00,4.45
4332.00,4.35
4331.00,4.25
4330.00,4.16
4329.00,4.08
4328.00,4.00
4327.00,3.92
4326.00,3.84
4325.00,3.77
4324.00,3.70
4323.00,3.63
4322.00,3.57
4321.00,3.51
4320.00,3.45
4319.00,3.39
4318.00,3.34
4317.00,3.29
4316.00,3.24
4315.00,3.19
4314.00,3.15
4313.00,3.11
4312.00,3.08
4311.00,3.04
4310.00,3.01
4309.00,2.97
4308.00,2.94
4307.00,2.91
4306.00,2.89
4305.00,2.86
4304.00,2.84
4303.00,2.82
4302.00,2.80
4301.00,2.78
4300.00,2.76
4299.00,2.74
4298.00,2.73
4297.00,2.71
4296.00,2.70
4295.00,2.69
4294.00,2.68
4293.00,2.67
4292.00,2.67
4291.00,2.66
4290.00,2.66
4289.00,2.65
4288.00,2.65
4287.00,2.65
4286.00,2.65
4285.00,2.65
4284.00,2.65
4283.00,2.66
4282.00,2.67
4281.00,2.68
4280.00,2.68
4279.00,2.69
4278.00,2.71
4277.00,2.72
4276.00,2.73
4275.00,2.74
4274.00,2.76
4273.00,2.78
4272.00,2.80
4271.00,2.82
4270.00,2.84
4269.00,2.87
4268.00,2.90
4267.00,2.93
4266.00,2.96
4265.00,2.99
4264.00,3.02
4263.00,3.06
4262.00,3.10
4261.00,3.14
4260.00,3.18
4259.00,3.22
4258.00,3.27
4257.00,3.32
4256.00,3.37
4255.00,3.42
4254.00,3.47
4253.00,3.53
4252.00,3.59
4251.00,3.65
4250.00,3.72
4249.00,3.78
4248.00,3.85
4247.00,3.92
4246.00,3.99
4245.00,4.07
4244.00,4.15
4243.00,4.23
4242.00,4.31
4241.00,4.39
4240.00,4.47
4239.00,4.56
4238.00,4.65
4237.00,4.74
4236.00,4.83
4235.00,4.92
4234.00,5.01
4233.00,5.10
4232.00,5.19
4231.00,5.29
4230.00,5.38
4229.00,5.48
4228.00,5.57
4227.00,5.67
4226.00,5.76
4225.00,5.86
4224.00,5.96
4223.00,6.06
4222.00,6.16
4221.00,6.26
4220.00,6.36
4219.00,6.46
4218.00,6.56
4217.00,6.66
4216.00,6.76
4215.00,6.87
4214.00,6.98
4213.00,7.09
4212.00,7.20
4211.00,7.31
4210.00,7.43
4209.00,7.55
4208.00,7.66
4207.00,7.78
4206.00,7.90
4205.00,8.03
4204.00,8.15
4203.00,8.27
4202.00,8.40
4201.00,8.52
4200.00,8.65
4199.00,8.78
4198.00,8.91
4197.00,9.03
4196.00,9.16
4195.00,9.29
4194.00,9.42
4193.00,9.55
4192.00,9.68
4191.00,9.82
4190.00,9.95
4189.00,10.08
4188.00,10.21
4187.00,10.35
4186.00,10.48
4185.00,10.61
4184.00,10.75
4183.00,10.88
4182.00,11.02
4181.00,11.15
4180.00,11.29
4179.00,11.42
4178.00,11.56
4177.00,11.69
4176.00,11.82
4175.00,11.95
4174.00,12.08
4173.00,12.20
4172.00,12.32
4171.00,12.44
4170.00,12.56
4169.00,12.67
4168.00,12.77
4167.00,12.86
4166.00,12.95
4165.00,13.03
4164.00,13.10
4163.00,13.16
4162.00,13.21
4161.00,13.25
4160.00,13.28
4159.00,13.29
4158.00,13.29
4157.00,13.27
4156.00,13.24
4155.00,13.19
4154.00,13.13
4153.00,13.05
4152.00,12.96
4151.00,12.85
4150.00,12.72
4149.00,12.58
4148.00,12.42
4147.00,12.26
4146.00,12.07
4145.00,11.88
4144.00,11.68
4143.00,11.46
4142.00,11.24
4141.00,11.01
4140.00,10.77
4139.00,10.52
4138.00,10.28
4137.00,10.02
4136.00,9.77
4135.00,9.51
4134.00,9.25
4133.00,9.00
4132.00,8.74
4131.00,8.49
4130.00,8.24
4129.00,8.00
4128.00,7.77
4127.00,7.53
4126.00,7.31
4125.00,7.09
4124.00,6.88
4123.00,6.67
4122.00,6.47
4121.00,6.27
4120.00,6.09
4119.00,5.90
4118.00,5.73
4117.00,5.56
4116.00,5.39
4115.00,5.24
4114.00,5.09
4113.00,4.94
4112.00,4.80
4111.00,4.67
4110.00,4.54
4109.00,4.41
4108.00,4.29
4107.00,4.18
4106.00,4.08
4105.00,3.97
4104.00,3.88
4103.00,3.78
4102.00,3.69
4101.00,3.60
4100.00,3.52
4099.00,3.44
4098.00,3.36
4097.00,3.29
4096.00,3.22
4095.00,3.16
4094.00,3.10
4093.00,3.04
4092.00,2.98
4091.00,2.93
4090.00,2.88
4089.00,2.83
4088.00,2.78
4087.00,2.73
4086.00,2.69
4085.00,2.65
4084.00,2.61
4083.00,2.58
4082.00,2.55
4081.00,2.51
4080.00,2.48
4079.00,2.45
4078.00,2.43
4077.00,2.40
4076.00,2.38
4075.00,2.36
4074.00,2.33
4073.00,2.31
4072.00,2.29
4071.00,2.28
4070.00,2.26
4069.00,2.25
4068.00,2.23
4067.00,2.22
4066.00,2.20
4065.00,2.19
4064.00,2.18
4063.00,2.18
4062.00,2.17
4061.00,2.16
4060.00,2.16
4059.00,2.15
4058.00,2.15
4057.00,2.14
4056.00,2.14
4055.00,2.14
4054.00,2.14
4053.00,2.15
4052.00,2.15
4051.00,2.15
4050.00,2.16
4049.00,2.16
4048.00,2.17
4047.00,2.18
4046.00,2.19
4045.00,2.20
4044.00,2.21
4043.00,2.22
4042.00,2.24
4041.00,2.26
4040.00,2.27
4039.00,2.29
4038.00,2.31
4037.00,2.33
4036.00,2.36
4035.00,2.38
4034.00,2.41
4033.00,2.43
4032.00,2.46
4031.00,2.50
4030.00,2.53
4029.00,2.56
4028.00,2.60
4027.00,2.64
4026.00,2.68
4025.00,2.72
4024.00,2.77
4023.00,2.82
4022.00,2.87
4021.00,2.92
4020.00,2.97
4019.00,3.03
4018.00,3.08
4017.00,3.14
4016.00,3.20
4015.00,3.26
4014.00,3.33
4013.00,3.40
4012.00,3.47
4011.00,3.54
4010.00,3.61
4009.00,3.69
4008.00,3.77
4007.00,3.85
4006.00,3.93
4005.00,4.01
4004.00,4.10
4003.00,4.19
4002.00,4.28
4001.00,4.37
4000.00,4.46
3999.00,4.56
3998.00,4.66
3997.00,4.76
3996.00,4.86
3995.00,4.96
3994.00,5.06
3993.00,5.17
3992.00,5.27
3991.00,5.38
3990.00,5.48
3989.00,5.59
3988.00,5.70
3987.00,5.81
3986.00,5.91
3985.00,6.02
3984.00,6.13
3983.00,6.24
3982.00,6.35
3981.00,6.46
3980.00,6.57
3979.00,6.68
3978.00,6.79
3977.00,6.91
3976.00,7.02
3975.00,7.14
3974.00,7.25
3973.00,7.37
3972.00,7.49
3971.00,7.61
3970.00,7.73
3969.00,7.85
3968.00,7.97
3967.00,8.10
3966.00,8.22
3965.00,8.34
3964.00,8.46
3963.00,8.59
3962.00,8.71
3961.00,8.84
3960.00,8.96
3959.00,9.09
3958.00,9.21
3957.00,9.34
3956.00,9.46
3955.00,9.58
3954.00,9.71
3953.00,9.83
3952.00,9.96
3951.00,10.09
3950.00,10.22
3949.00,10.36
3948.00,10.51
3947.00,10.66
3946.00,10.80
3945.00,10.94
3944.00,11.07
3943.00,11.21
3942.00,11.35
3941.00,11.50
3940.00,11.64
3939.00,11.78
3938.00,11.90
3937.00,12.02
3936.00,12.13
3935.00,12.23
3934.00,12.32
3933.00,12.40
3932.00,12.49
3931.00,12.57
3930.00,12.64
3929.00,12.69
3928.00,12.73
3927.00,12.73
3926.00,12.71
3925.00,12.68
3924.00,12.65
3923.00,12.59
3922.00,12.52
3921.00,12.43
3920.00,12.31
3919.00,12.16
3918.00,11.99
3917.00,11.80
3916.00,11.60
3915.00,11.38
3914.00,11.15
3913.00,10.91
3912.00,10.65
3911.00,10.38
3910.00,10.11
3909.00,9.85
3908.00,9.58
3907.00,9.32
3906.00,9.06
3905.00,8.79
3904.00,8.51
3903.00,8.23
3902.00,7.95
3901.00,7.68
3900.00,7.40
3899.00,7.13
3898.00,6.87
3897.00,6.62
3896.00,6.39
3895.00,6.17
3894.00,5.96
3893.00,5.76
3892.00,5.56
3891.00,5.36
3890.00,5.18
3889.00,5.00
3888.00,4.84
3887.00,4.68
3886.00,4.53
3885.00,4.38
3884.00,4.23
3883.00,4.10
3882.00,3.97
3881.00,3.85
3880.00,3.73
3879.00,3.61
3878.00,3.51
3877.00,3.41
3876.00,3.32
3875.00,3.23
3874.00,3.15
3873.00,3.07
3872.00,3.00
3871.00,2.93
3870.00,2.86
3869.00,2.79
3868.00,2.73
3867.00,2.66
3866.00,2.61
3865.00,2.55
3864.00,2.49
3863.00,2.44
3862.00,2.39
3861.00,2.34
3860.00,2.30
3859.00,2.27
3858.00,2.24
3857.00,2.22
3856.00,2.19
3855.00,2.16
3854.00,2.13
3853.00,2.10
3852.00,2.06
3851.00,2.03
3850.00,2.00
3849.00,1.97
3848.00,1.94
3847.00,1.92
3846.00,1.89
3845.00,1.88
3844.00,1.86
3843.00,1.85
3842.00,1.84
3841.00,1.82
3840.00,1.81
3839.00,1.80
3838.00,1.79
3837.00,1.79
3836.00,1.78
3835.00,1.77
3834.00,1.76
3833.00,1.75
3832.00,1.74
3831.00,1.73
3830.00,1.73
3829.00,1.72
3828.00,1.71
3827.00,1.71
3826.00,1.71
3825.00,1.72
3824.00,1.72
3823.00,1.72
3822.00,1.72
3821.00,1.73
3820.00,1.74
3819.00,1.75
3818.00,1.75
3817.00,1.76
3816.00,1.77
3815.00,1.77
3814.00,1.78
3813.00,1.79
3812.00,1.80
3811.00,1.81
3810.00,1.83
3809.00,1.84
3808.00,1.86
3807.00,1.88
3806.00,1.91
3805.00,1.93
3804.00,1.95
3803.00,1.98
3802.00,2.01
3801.00,2.04
3800.00,2.07
3799.00,2.09
3798.00,2.12
3797.00,2.15
3796.00,2.18
3795.00,2.21
3794.00,2.25
3793.00,2.29
3792.00,2.33
3791.00,2.37
3790.00,2.42
3789.00,2.46
3788.00,2.51
3787.00,2.57
3786.00,2.63
3785.00,2.69
3784.00,2.76
3783.00,2.82
3782.00,2.89
3781.00,2.96
3780.00,3.03
3779.00,3.10
3778.00,3.17
3777.00,3.25
3776.00,3.33
3775.00,3.41
3774.00,3.50
3773.00,3.59
3772.00,3.68
3771.00,3.78
3770.00,3.88
3769.00,3.97
3768.00,4.07
3767.00,4.16
3766.00,4.26
3765.00,4.36
3764.00,4.46
3763.00,4.56
3762.00,4.67
3761.00,4.78
3760.00,4.89
3759.00,5.01
3758.00,5.13
3757.00,5.26
3756.00,5.39
3755.00,5.53
3754.00,5.67
3753.00,5.82
3752.00,5.97
3751.00,6.13
3750.00,6.30
3749.00,6.46
3748.00,6.61
3747.00,6.74
3746.00,6.87
3745.00,7.01
3744.00,7.15
3743.00,7.29
3742.00,7.41
3741.00,7.52
3740.00,7.63
3739.00,7.74
3738.00,7.84
3737.00,7.96
3736.00,8.09
3735.00,8.23
3734.00,8.37
3733.00,8.51
3732.00,8.64
3731.00,8.79
3730.00,8.95
3729.00,9.09
3728.00,9.21
3727.00,9.29
3726.00,9.38
3725.00,9.49
3724.00,9.63
3723.00,9.80
3722.00,9.97
3721.00,10.15
3720.00,10.31
3719.00,10.48
3718.00,10.64
3717.00,10.80
3716.00,10.95
3715.00,11.08
3714.00,11.18
3713.00,11.30
3712.00,11.43
3711.00,11.60
3710.00,11.78
3709.00,11.93
3708.00,12.05
3707.00,12.13
3706.00,12.17
3705.00,12.18
3704.00,12.17
3703.00,12.14
3702.00,12.12
3701.00,12.09
3700.00,12.06
3699.00,12.00
3698.00,11.91
3697.00,11.78
3696.00,11.64
3695.00,11.47
3694.00,11.29
3693.00,11.10
3692.00,10.88
3691.00,10.64
3690.00,10.39
3689.00,10.11
3688.00,9.81
3687.00,9.52
3686.00,9.23
3685.00,8.94
3684.00,8.65
3683.00,8.35
3682.00,8.05
3681.00,7.77
3680.00,7.50
3679.00,7.25
3678.00,7.00
3677.00,6.75
3676.00,6.48
3675.00,6.21
3674.00,5.95
3673.00,5.71
3672.00,5.49
3671.00,5.28
3670.00,5.05
3669.00,4.83
3668.00,4.61
3667.00,4.42
3666.00,4.24
3665.00,4.08
3664.00,3.93
3663.00,3.78
3662.00,3.64
3661.00,3.52
3660.00,3.40
3659.00,3.29
3658.00,3.19
3657.00,3.09
3656.00,2.99
3655.00,2.90
3654.00,2.81
3653.00,2.74
3652.00,2.67
3651.00,2.60
3650.00,2.53
3649.00,2.46
3648.00,2.39
3647.00,2.32
3646.00,2.26
3645.00,2.20
3644.00,2.14
3643.00,2.09
3642.00,2.04
3641.00,1.99
3640.00,1.95
3639.00,1.91
3638.00,1.87
3637.00,1.84
3636.00,1.80
3635.00,1.77
3634.00,1.74
3633.00,1.71
3632.00,1.69
3631.00,1.66
3630.00,1.64
3629.00,1.61
3628.00,1.59
3627.00,1.57
3626.00,1.54
3625.00,1.52
3624.00,1.49
3623.00,1.47
3622.00,1.45
3621.00,1.44
3620.00,1.42
3619.00,1.41
3618.00,1.40
3617.00,1.39
3616.00,1.38
3615.00,1.37
3614.00,1.36
3613.00,1.35
3612.00,1.34
3611.00,1.33
3610.00,1.32
3609.00,1.31
3608.00,1.31
3607.00,1.30
3606.00,1.29
3605.00,1.28
3604.00,1.28
3603.00,1.27
3602.00,1.27
3601.00,1.26
3600.00,1.26
3599.00,1.26
3598.00,1.26
3597.00,1.25
3596.00,1.25
3595.00,1.25
3594.00,1.25
3593.00,1.25
3592.00,1.26
3591.00,1.26
3590.00,1.27
3589.00,1.27
3588.00,1.27
3587.00,1.28
3586.00,1.28
3585.00,1.29
3584.00,1.29
3583.00,1.30
3582.00,1.30
3581.00,1.31
3580.00,1.32
3579.00,1.33
3578.00,1.34
3577.00,1.35
3576.00,1.36
3575.00,1.38
3574.00,1.39
3573.00,1.41
3572.00,1.43
3571.00,1.45
3570.00,1.47
3569.00,1.49
3568.00,1.51
3567.00,1.53
3566.00,1.56
3565.00,1.58
3564.00,1.61
3563.00,1.63
3562.00,1.66
3561.00,1.69
3560.00,1.72
3559.00,1.76
3558.00,1.79
3557.00,1.83
3556.00,1.87
3555.00,1.91
3554.00,1.95
3553.00,2.00
3552.00,2.05
3551.00,2.10
3550.00,2.15
3549.00,2.20
3548.00,2.26
3547.00,2.31
3546.00,2.37
3545.00,2.43
3544.00,2.49
3543.00,2.55
3542.00,2.61
3541.00,2.68
3540.00,2.74
3539.00,2.81
3538.00,2.88
3537.00,2.95
3536.00,3.02
3535.00,3.09
3534.00,3.17
3533.00,3.24
3532.00,3.32
3531.00,3.39
3530.00,3.47
3529.00,3.55
3528.00,3.63
3527.00,3.71
3526.00,3.79
3525.00,3.87
3524.00,3.95
3523.00,4.04
3522.00,4.12
3521.00,4.20
3520.00,4.29
3519.00,4.37
3518.00,4.45
3517.00,4.53
3516.00,4.62
3515.00,4.71
3514.00,4.80
3513.00,4.89
3512.00,4.98
3511.00,5.08
3510.00,5.17
3509.00,5.27
3508.00,5.36
3507.00,5.46
3506.00,5.55
3505.00,5.65
3504.00,5.75
3503.00,5.85
3502.00,5.96
3501.00,6.07
3500.00,6.17
3499.00,6.28
3498.00,6.38
3497.00,6.49
3496.00,6.59
3495.00,6.70
3494.00,6.81
3493.00,6.92
3492.00,7.02
3491.00,7.13
3490.00,7.24
3489.00,7.35
3488.00,7.46
3487.00,7.57
3486.00,7.67
3485.00,7.77
3484.00,7.87
3483.00,7.96
3482.00,8.05
3481.00,8.14
3480.00,8.23
3479.00,8.31
3478.00,8.37
3477.00,8.43
3476.00,8.48
3475.00,8.52
3474.00,8.55
3473.00,8.57
3472.00,8.57
3471.00,8.56
3470.00,8.54
3469.00,8.50
3468.00,8.44
3467.00,8.37
3466.00,8.28
3465.00,8.17
3464.00,8.04
3463.00,7.91
3462.00,7.75
3461.00,7.59
3460.00,7.41
3459.00,7.22
3458.00,7.03
3457.00,6.83
3456.00,6.62
3455.00,6.40
3454.00,6.19
3453.00,5.98
3452.00,5.77
3451.00,5.56
3450.00,5.35
3449.00,5.15
3448.00,4.95
3447.00,4.75
3446.00,4.56
3445.00,4.38
3444.00,4.21
3443.00,4.04
3442.00,3.88
3441.00,3.72
3440.00,3.58
3439.00,3.43
3438.00,3.30
3437.00,3.17
3436.00,3.05
3435.00,2.93
3434.00,2.82
3433.00,2.71
3432.00,2.61
3431.00,2.51
3430.00,2.42
3429.00,2.34
3428.00,2.26
3427.00,2.18
3426.00,2.11
3425.00,2.04
3424.00,1.98
3423.00,1.92
3422.00,1.86
3421.00,1.80
3420.00,1.75
3419.00,1.70
3418.00,1.66
3417.00,1.62
3416.00,1.58
3415.00,1.54
3414.00,1.51
3413.00,1.48
3412.00,1.45
3411.00,1.42
3410.00,1.39
3409.00,1.37
3408.00,1.35
3407.00,1.33
3406.00,1.31
3405.00,1.29
3404.00,1.27
3403.00,1.26
3402.00,1.25
3401.00,1.23
3400.00,1.22
3399.00,1.21
3398.00,1.20
3397.00,1.19
3396.00,1.17
3395.00,1.16
3394.00,1.15
3393.00,1.14
3392.00,1.12
3391.00,1.11
3390.00,1.10
3389.00,1.09
3388.00,1.08
3387.00,1.07
3386.00,1.06
3385.00,1.05
3384.00,1.04
3383.00,1.04
3382.00,1.03
3381.00,1.02
3380.00,1.01
3379.00,1.01
3378.00,1.00
3377.00,1.00
3376.00,0.99
3375.00,0.99
3374.00,0.98
3373.00,0.98
3372.00,0.98
3371.00,0.98
3370.00,0.97
3369.00,0.97
3368.00,0.97
3367.00,0.97
3366.00,0.97
3365.00,0.97
3364.00,0.96
3363.00,0.97
3362.00,0.97
3361.00,0.97
3360.00,0.97
3359.00,0.98
3358.00,0.98
3357.00,0.98
3356.00,0.99
3355.00,0.99
3354.00,1.00
3353.00,1.00
3352.00,1.01
3351.00,1.01
3350.00,1.02
3349.00,1.03
3348.00,1.04
3347.00,1.05
3346.00,1.06
3345.00,1.07
3344.00,1.08
3343.00,1.09
3342.00,1.11
3341.00,1.12
3340.00,1.14
3339.00,1.15
3338.00,1.17
3337.00,1.19
3336.00,1.21
3335.00,1.23
3334.00,1.25
3333.00,1.27
3332.00,1.30
3331.00,1.32
3330.00,1.35
3329.00,1.38
3328.00,1.41
3327.00,1.44
3326.00,1.48
3325.00,1.51
3324.00,1.55
3323.00,1.59
3322.00,1.63
3321.00,1.67
3320.00,1.72
3319.00,1.77
3318.00,1.82
3317.00,1.87
3316.00,1.93
3315.00,1.99
3314.00,2.05
3313.00,2.11
3312.00,2.18
3311.00,2.24
3310.00,2.31
3309.00,2.38
3308.00,2.46
3307.00,2.53
3306.00,2.61
3305.00,2.69
3304.00,2.77
3303.00,2.85
3302.00,2.94
3301.00,3.02
3300.00,3.11
3299.00,3.20
3298.00,3.29
3297.00,3.38
3296.00,3.47
3295.00,3.57
3294.00,3.66
3293.00,3.76
3292.00,3.85
3291.00,3.95
3290.00,4.05
3289.00,4.14
3288.00,4.24
3287.00,4.33
3286.00,4.43
3285.00,4.53
3284.00,4.63
3283.00,4.74
3282.00,4.84
3281.00,4.94
3280.00,5.05
3279.00,5.15
3278.00,5.26
3277.00,5.36
3276.00,5.47
3275.00,5.57
3274.00,5.68
3273.00,5.79
3272.00,5.90
3271.00,6.02
3270.00,6.13
3269.00,6.24
3268.00,6.35
3267.00,6.46
3266.00,6.58
3265.00,6.69
3264.00,6.81
3263.00,6.93
3262.00,7.04
3261.00,7.16
3260.00,7.27
3259.00,7.39
3258.00,7.50
3257.00,7.61
3256.00,7.72
3255.00,7.82
3254.00,7.92
3253.00,8.01
3252.00,8.09
3251.00,8.17
3250.00,8.24
3249.00,8.29
3248.00,8.34
3247.00,8.36
3246.00,8.38
3245.00,8.38
3244.00,8.36
3243.00,8.32
3242.00,8.27
3241.00,8.19
3240.00,8.10
3239.00,7.98
3238.00,7.85
3237.00,7.70
3236.00,7.53
3235.00,7.35
3234.00,7.16
3233.00,6.95
3232.00,6.74
3231.00,6.52
3230.00,6.30
3229.00,6.07
3228.00,5.85
3227.00,5.62
3226.00,5.40
3225.00,5.18
3224.00,4.96
3223.00,4.75
3222.00,4.55
3221.00,4.35
3220.00,4.16
3219.00,3.98
3218.00,3.81
3217.00,3.64
3216.00,3.48
3215.00,3.33
3214.00,3.19
3213.00,3.05
3212.00,2.92
3211.00,2.80
3210.00,2.68
3209.00,2.57
3208.00,2.47
3207.00,2.37
3206.00,2.28
3205.00,2.20
3204.00,2.11
3203.00,2.04
3202.00,1.96
3201.00,1.90
3200.00,1.83
3199.00,1.77
3198.00,1.71
3197.00,1.66
3196.00,1.61
3195.00,1.56
3194.00,1.51
3193.00,1.47
3192.00,1.43
3191.00,1.39
3190.00,1.35
3189.00,1.32
3188.00,1.28
3187.00,1.25
3186.00,1.22
3185.00,1.20
3184.00,1.17
3183.00,1.15
3182.00,1.13
3181.00,1.10
3180.00,1.08
3179.00,1.06
3178.00,1.04
3177.00,1.02
3176.00,1.00
3175.00,0.99
3174.00,0.97
3173.00,0.96
3172.00,0.94
3171.00,0.93
3170.00,0.91
3169.00,0.90
3168.00,0.89
3167.00,0.88
3166.00,0.87
3165.00,0.86
3164.00,0.85
3163.00,0.84
3162.00,0.83
3161.00,0.83
3160.00,0.82
3159.00,0.81
3158.00,0.81
3157.00,0.80
3156.00,0.80
3155.00,0.79
3154.00,0.79
3153.00,0.78
3152.00,0.78
3151.00,0.77
3150.00,0.77
3149.00,0.77
3148.00,0.77
3147.00,0.77
3146.00,0.77
3145.00,0.76
3144.00,0.76
3143.00,0.76
3142.00,0.77
3141.00,0.77
3140.00,0.77
3139.00,0.77
3138.00,0.77
3137.00,0.77
3136.00,0.77
3135.00,0.78
3134.00,0.78
3133.00,0.79
3132.00,0.79
3131.00,0.80
3130.00,0.80
3129.00,0.81
3128.00,0.81
3127.00,0.82
3126.00,0.83
3125.00,0.84
3124.00,0.85
3123.00,0.86
3122.00,0.87
3121.00,0.88
3120.00,0.90
3119.00,0.91
3118.00,0.92
3117.00,0.94
3116.00,0.96
3115.00,0.97
3114.00,0.99
3113.00,1.01
3112.00,1.03
3111.00,1.06
3110.00,1.08
3109.00,1.11
3108.00,1.13
3107.00,1.17
3106.00,1.20
3105.00,1.23
3104.00,1.27
3103.00,1.31
3102.00,1.35
3101.00,1.39
3100.00,1.44
3099.00,1.49
3098.00,1.54
3097.00,1.60
3096.00,1.66
3095.00,1.72
3094.00,1.78
3093.00,1.85
3092.00,1.92
3091.00,1.99
3090.00,2.07
3089.00,2.15
3088.00,2.23
3087.00,2.31
3086.00,2.40
3085.00,2.48
3084.00,2.57
3083.00,2.66
3082.00,2.75
3081.00,2.85
3080.00,2.94
3079.00,3.03
3078.00,3.13
3077.00,3.23
3076.00,3.32
3075.00,3.42
3074.00,3.52
3073.00,3.61
3072.00,3.71
3071.00,3.81
3070.00,3.90
3069.00,4.00
3068.00,4.10
3067.00,4.19
3066.00,4.29
3065.00,4.39
3064.00,4.48
3063.00,4.58
3062.00,4.68
3061.00,4.78
3060.00,4.87
3059.00,4.97
3058.00,5.07
3057.00,5.18
3056.00,5.28
3055.00,5.39
3054.00,5.49
3053.00,5.60
3052.00,5.71
3051.00,5.82
3050.00,5.93
3049.00,6.04
3048.00,6.14
3047.00,6.24
3046.00,6.33
3045.00,6.41
3044.00,6.48
3043.00,6.53
3042.00,6.56
3041.00,6.57
3040.00,6.55
3039.00,6.50
3038.00,6.42
3037.00,6.31
3036.00,6.18
3035.00,6.01
3034.00,5.83
3033.00,5.62
3032.00,5.40
3031.00,5.16
3030.00,4.92
3029.00,4.68
3028.00,4.43
3027.00,4.19
3026.00,3.95
3025.00,3.73
3024.00,3.50
3023.00,3.29
3022.00,3.09
3021.00,2.90
3020.00,2.72
3019.00,2.55
3018.00,2.39
3017.00,2.24
3016.00,2.10
3015.00,1.97
3014.00,1.85
3013.00,1.74
3012.00,1.63
3011.00,1.53
3010.00,1.45
3009.00,1.36
3008.00,1.29
3007.00,1.22
3006.00,1.15
3005.00,1.10
3004.00,1.04
3003.00,0.99
3002.00,0.94
3001.00,0.90
3000.00,0.86
2999.00,0.82
2998.00,0.79
2997.00,0.76
2996.00,0.73
2995.00,0.70
2994.00,0.68
2993.00,0.66
2992.00,0.64
2991.00,0.62
2990.00,0.60
2989.00,0.58
2988.00,0.57
2987.00,0.56
2986.00,0.55
2985.00,0.53
2984.00,0.52
2983.00,0.51
2982.00,0.50
2981.00,0.49
2980.00,0.48
2979.00,0.48
2978.00,0.47
2977.00,0.46
2976.00,0.44
2975.00,0.43
2974.00,0.42
2973.00,0.40
2972.00,0.38
2971.00,0.35
2970.00,0.33
2969.00,0.30
2968.00,0.27
2967.00,0.24
2966.00,0.22
2965.00,0.19
2964.00,0.16
2963.00,0.14
2962.00,0.12
2961.00,0.11
2960.00,0.10
2959.00,0.08
2958.00,0.07
2957.00,0.07
2956.00,0.06
2955.00,0.05
2954.00,0.05
2953.00,0.05
2952.00,0.04
2951.00,0.04
2950.00,0.03
2949.00,0.03
2948.00,0.03
2947.00,0.02
2946.00,0.02
2945.00,0.02
2944.00,0.02
2943.00,0.02
2942.00,0.02
2941.00,0.01
2940.00,0.01
2939.00,0.01
2938.00,0.01
2937.00,0.01
2936.00,0.01
2935.00,0.01
2934.00,0.01
2933.00,0.01
2932.00,0.02
2931.00,0.02
2930.00,0.02
2929.00,0.03
2928.00,0.03
2927.00,0.04
2926.00,0.04
2925.00,0.05
2924.00,0.06
2923.00,0.07
2922.00,0.08
2921.00,0.09
2920.00,0.10
2919.00,0.12
2918.00,0.13
2917.00,0.15
2916.00,0.17
2915.00,0.19
2914.00,0.21
2913.00,0.23
2912.00,0.24
2911.00,0.26
2910.00,0.27
2909.00,0.28
2908.00,0.28
2907.00,0.29
2906.00,0.30
2905.00,0.30
2904.00,0.31
2903.00,0.31
2902.00,0.32
2901.00,0.32
2900.00,0.33
2899.00,0.33
2898.00,0.33
2897.00,0.33
2896.00,0.34
2895.00,0.34
2894.00,0.33
2893.00,0.33
2892.00,0.33
2891.00,0.33
2890.00,0.33
2889.00,0.33
2888.00,0.32
2887.00,0.32
2886.00,0.32
2885.00,0.31
2884.00,0.31
2883.00,0.30
2882.00,0.30
2881.00,0.29
2880.00,0.28
2879.00,0.27
2878.00,0.26
2877.00,0.25
2876.00,0.24
2875.00,0.23
2874.00,0.22
2873.00,0.21
2872.00,0.19
2871.00,0.18
2870.00,0.16
2869.00,0.14
2868.00,0.13
2867.00,0.12
2866.00,0.11
2865.00,0.10
2864.00,0.09
2863.00,0.09
2862.00,0.09
2861.00,0.09
2860.00,0.10
2859.00,0.11
2858.00,0.12
2857.00,0.14
2856.00,0.16
2855.00,0.18
2854.00,0.21
2853.00,0.24
2852.00,0.27
2851.00,0.29
2850.00,0.32
2849.00,0.35
2848.00,0.37
2847.00,0.38
2846.00,0.39
2845.00,0.40
2844.00,0.41
2843.00,0.41
2842.00,0.42
2841.00,0.42
2840.00,0.42
2839.00,0.42
2838.00,0.42
2837.00,0.43
2836.00,0.43
2835.00,0.43
2834.00,0.43
2833.00,0.43
2832.00,0.44
2831.00,0.44
2830.00,0.44
2829.00,0.45
2828.00,0.45
2827.00,0.46
2826.00,0.46
2825.00,0.47
2824.00,0.47
2823.00,0.48
2822.00,0.49
2821.00,0.50
2820.00,0.51
2819.00,0.52
2818.00,0.54
2817.00,0.55
2816.00,0.56
2815.00,0.58
2814.00,0.60
2813.00,0.62
2812.00,0.64
2811.00,0.66
2810.00,0.68
2809.00,0.71
2808.00,0.74
2807.00,0.77
2806.00,0.80
2805.00,0.83
2804.00,0.87
2803.00,0.91
2802.00,0.95
2801.00,0.99
2800.00,1.04
2799.00,1.08
2798.00,1.13
2797.00,1.18
2796.00,1.23
2795.00,1.28
2794.00,1.34
2793.00,1.40
2792.00,1.47
2791.00,1.54
2790.00,1.62
2789.00,1.71
2788.00,1.80
2787.00,1.89
2786.00,1.99
2785.00,2.09
2784.00,2.19
2783.00,2.29
2782.00,2.39
2781.00,2.49
2780.00,2.59
2779.00,2.69
2778.00,2.79
2777.00,2.89
2776.00,3.00
2775.00,3.10
2774.00,3.21
2773.00,3.32
2772.00,3.43
2771.00,3.54
2770.00,3.65
2769.00,3.76
2768.00,3.87
2767.00,3.98
2766.00,4.09
2765.00,4.20
2764.00,4.31
2763.00,4.42
2762.00,4.54
2761.00,4.66
2760.00,4.79
2759.00,4.92
2758.00,5.06
2757.00,5.21
2756.00,5.36
2755.00,5.51
2754.00,5.66
2753.00,5.79
2752.00,5.91
2751.00,6.01
2750.00,6.09
2749.00,6.15
2748.00,6.18
2747.00,6.18
2746.00,6.15
2745.00,6.09
2744.00,5.99
2743.00,5.86
2742.00,5.71
2741.00,5.53
2740.00,5.33
2739.00,5.11
2738.00,4.88
2737.00,4.65
2736.00,4.41
2735.00,4.18
2734.00,3.95
2733.00,3.72
2732.00,3.51
2731.00,3.30
2730.00,3.11
2729.00,2.93
2728.00,2.75
2727.00,2.59
2726.00,2.43
2725.00,2.29
2724.00,2.15
2723.00,2.02
2722.00,1.90
2721.00,1.79
2720.00,1.69
2719.00,1.60
2718.00,1.51
2717.00,1.43
2716.00,1.36
2715.00,1.29
2714.00,1.22
2713.00,1.17
2712.00,1.11
2711.00,1.06
2710.00,1.01
2709.00,0.97
2708.00,0.93
2707.00,0.90
2706.00,0.86
2705.00,0.83
2704.00,0.80
2703.00,0.77
2702.00,0.75
2701.00,0.72
2700.00,0.70
2699.00,0.68
2698.00,0.66
2697.00,0.64
2696.00,0.62
2695.00,0.61
2694.00,0.59
2693.00,0.58
2692.00,0.56
2691.00,0.55
2690.00,0.54
2689.00,0.53
2688.00,0.52
2687.00,0.50
2686.00,0.49
2685.00,0.48
2684.00,0.47
2683.00,0.46
2682.00,0.46
2681.00,0.45
2680.00,0.44
2679.00,0.44
2678.00,0.43
2677.00,0.42
2676.00,0.42
2675.00,0.41
2674.00,0.41
2673.00,0.40
2672.00,0.40
2671.00,0.40
2670.00,0.39
2669.00,0.39
2668.00,0.39
2667.00,0.39
2666.00,0.39
2665.00,0.38
2664.00,0.38
2663.00,0.38
2662.00,0.38
2661.00,0.38
2660.00,0.37
2659.00,0.37
2658.00,0.37
2657.00,0.37
2656.00,0.37
2655.00,0.37
2654.00,0.37
2653.00,0.36
2652.00,0.36
2651.00,0.36
2650.00,0.36
2649.00,0.36
2648.00,0.36
2647.00,0.36
2646.00,0.36
2645.00,0.36
2644.00,0.36
2643.00,0.36
2642.00,0.36
2641.00,0.36
2640.00,0.37
2639.00,0.37
2638.00,0.37
2637.00,0.37
2636.00,0.38
2635.00,0.38
2634.00,0.38
2633.00,0.38
2632.00,0.39
2631.00,0.39
2630.00,0.39
2629.00,0.40
2628.00,0.40
2627.00,0.40
2626.00,0.41
2625.00,0.42
2624.00,0.42
2623.00,0.43
2622.00,0.43
2621.00,0.44
2620.00,0.45
2619.00,0.45
2618.00,0.46
2617.00,0.47
2616.00,0.48
2615.00,0.49
2614.00,0.50
2613.00,0.50
2612.00,0.51
2611.00,0.52
2610.00,0.53
2609.00,0.55
2608.00,0.56
2607.00,0.57
2606.00,0.59
2605.00,0.61
2604.00,0.62
2603.00,0.64
2602.00,0.66
2601.00,0.69
2600.00,0.71
2599.00,0.74
2598.00,0.77
2597.00,0.80
2596.00,0.83
2595.00,0.87
2594.00,0.90
2593.00,0.94
2592.00,0.99
2591.00,1.03
2590.00,1.08
2589.00,1.13
2588.00,1.18
2587.00,1.23
2586.00,1.29
2585.00,1.35
2584.00,1.41
2583.00,1.47
2582.00,1.54
2581.00,1.60
2580.00,1.67
2579.00,1.74
2578.00,1.81
2577.00,1.89
2576.00,1.96
2575.00,2.03
2574.00,2.10
2573.00,2.18
2572.00,2.25
2571.00,2.33
2570.00,2.40
2569.00,2.48
2568.00,2.55
2567.00,2.63
2566.00,2.71
2565.00,2.79
2564.00,2.88
2563.00,2.97
2562.00,3.06
2561.00,3.15
2560.00,3.24
2559.00,3.34
2558.00,3.43
2557.00,3.53
2556.00,3.63
2555.00,3.74
2554.00,3.84
2553.00,3.95
2552.00,4.05
2551.00,4.16
2550.00,4.26
2549.00,4.37
2548.00,4.47
2547.00,4.58
2546.00,4.68
2545.00,4.78
2544.00,4.88
2543.00,4.98
2542.00,5.07
2541.00,5.16
2540.00,5.25
2539.00,5.32
2538.00,5.39
2537.00,5.44
2536.00,5.48
2535.00,5.50
2534.00,5.50
2533.00,5.48
2532.00,5.44
2531.00,5.37
2530.00,5.29
2529.00,5.18
2528.00,5.06
2527.00,4.91
2526.00,4.75
2525.00,4.58
2524.00,4.39
2523.00,4.20
2522.00,4.01
2521.00,3.81
2520.00,3.62
2519.00,3.43
2518.00,3.24
2517.00,3.06
2516.00,2.88
2515.00,2.71
2514.00,2.55
2513.00,2.39
2512.00,2.25
2511.00,2.11
2510.00,1.98
2509.00,1.86
2508.00,1.75
2507.00,1.64
2506.00,1.54
2505.00,1.45
2504.00,1.37
2503.00,1.29
2502.00,1.22
2501.00,1.15
2500.00,1.09
2499.00,1.04
2498.00,0.99
2497.00,0.94
2496.00,0.89
2495.00,0.85
2494.00,0.81
2493.00,0.78
2492.00,0.75
2491.00,0.72
2490.00,0.69
2489.00,0.66
2488.00,0.64
2487.00,0.62
2486.00,0.60
2485.00,0.58
2484.00,0.56
2483.00,0.54
2482.00,0.52
2481.00,0.51
2480.00,0.49
2479.00,0.48
2478.00,0.47
2477.00,0.46
2476.00,0.44
2475.00,0.43
2474.00,0.42
2473.00,0.41
2472.00,0.40
2471.00,0.39
2470.00,0.39
2469.00,0.38
2468.00,0.37
2467.00,0.36
2466.00,0.36
2465.00,0.35
2464.00,0.35
2463.00,0.34
2462.00,0.33
2461.00,0.33
2460.00,0.32
2459.00,0.32
2458.00,0.31
2457.00,0.31
2456.00,0.31
2455.00,0.30
2454.00,0.30
2453.00,0.30
2452.00,0.29
2451.00,0.29
2450.00,0.29
2449.00,0.28
2448.00,0.28
2447.00,0.28
2446.00,0.28
2445.00,0.27
2444.00,0.27
2443.00,0.27
2442.00,0.27
2441.00,0.27
2440.00,0.27
2439.00,0.26
2438.00,0.26
2437.00,0.26
2436.00,0.26
2435.00,0.26
2434.00,0.26
2433.00,0.26
2432.00,0.25
2431.00,0.25
2430.00,0.25
2429.00,0.25
2428.00,0.25
2427.00,0.25
2426.00,0.25
2425.00,0.25
2424.00,0.25
2423.00,0.25
2422.00,0.25
2421.00,0.25
2420.00,0.26
2419.00,0.26
2418.00,0.26
2417.00,0.26
2416.00,0.26
2415.00,0.26
2414.00,0.26
2413.00,0.26
2412.00,0.26
2411.00,0.26
2410.00,0.27
2409.00,0.27
2408.00,0.27
2407.00,0.28
2406.00,0.28
2405.00,0.28
2404.00,0.28
2403.00,0.29
2402.00,0.29
2401.00,0.29
2400.00,0.30
2399.00,0.30
2398.00,0.30
2397.00,0.31
2396.00,0.31
2395.00,0.32
2394.00,0.32
2393.00,0.33
2392.00,0.34
2391.00,0.34
2390.00,0.35
2389.00,0.36
2388.00,0.36
2387.00,0.37
2386.00,0.38
2385.00,0.39
2384.00,0.40
2383.00,0.41
2382.00,0.42
2381.00,0.43
2380.00,0.44
2379.00,0.46
2378.00,0.47
2377.00,0.49
2376.00,0.50
2375.00,0.52
2374.00,0.54
2373.00,0.56
2372.00,0.59
2371.00,0.61
2370.00,0.64
2369.00,0.67
2368.00,0.70
2367.00,0.73
2366.00,0.76
2365.00,0.80
2364.00,0.84
2363.00,0.88
2362.00,0.92
2361.00,0.97
2360.00,1.01
2359.00,1.06
2358.00,1.12
2357.00,1.17
2356.00,1.22
2355.00,1.28
2354.00,1.35
2353.00,1.41
2352.00,1.47
2351.00,1.53
2350.00,1.60
2349.00,1.66
2348.00,1.73
2347.00,1.80
2346.00,1.87
2345.00,1.95
2344.00,2.02
2343.00,2.09
2342.00,2.16
2341.00,2.23
2340.00,2.29
2339.00,2.35
2338.00,2.42
2337.00,2.49
2336.00,2.56
2335.00,2.63
2334.00,2.70
2333.00,2.78
2332.00,2.85
2331.00,2.94
2330.00,3.01
2329.00,3.12
2328.00,3.15
2327.00,3.38
2326.00,4.87
2325.00,4.81
2324.00,4.87
2323.00,4.87
2322.00,4.89
2321.00,4.91
2320.00,4.94
2319.00,4.97
2318.00,4.99
2317.00,5.02
2316.00,5.03
2315.00,5.04
2314.00,5.05
2313.00,5.05
2312.00,5.03
2311.00,5.01
2310.00,4.95
2309.00,4.89
2308.00,4.80
2307.00,4.70
2306.00,4.56
2305.00,4.41
2304.00,4.24
2303.00,4.06
2302.00,3.86
2301.00,3.66
2300.00,3.45
2299.00,3.24
2298.00,3.04
2297.00,2.84
2296.00,2.65
2295.00,2.48
2294.00,2.31
2293.00,2.16
2292.00,2.02
2291.00,1.89
2290.00,1.77
2289.00,1.65
2288.00,1.55
2287.00,1.45
2286.00,1.36
2285.00,1.28
2284.00,1.20
2283.00,1.12
2282.00,1.06
2281.00,0.99
2280.00,0.94
2279.00,0.88
2278.00,0.84
2277.00,0.79
2276.00,0.75
2275.00,0.71
2274.00,0.68
2273.00,0.64
2272.00,0.62
2271.00,0.59
2270.00,0.56
2269.00,0.54
2268.00,0.52
2267.00,0.50
2266.00,0.48
2265.00,0.46
2264.00,0.44
2263.00,0.43
2262.00,0.41
2261.00,0.40
2260.00,0.39
2259.00,0.37
2258.00,0.36
2257.00,0.35
2256.00,0.34
2255.00,0.33
2254.00,0.32
2253.00,0.32
2252.00,0.31
2251.00,0.30
2250.00,0.29
2249.00,0.29
2248.00,0.28
2247.00,0.27
2246.00,0.27
2245.00,0.26
2244.00,0.26
2243.00,0.25
2242.00,0.25
2241.00,0.24
2240.00,0.24
2239.00,0.23
2238.00,0.23
2237.00,0.23
2236.00,0.23
2235.00,0.22
2234.00,0.22
2233.00,0.22
2232.00,0.21
2231.00,0.21
2230.00,0.21
2229.00,0.20
2228.00,0.20
2227.00,0.20
2226.00,0.20
2225.00,0.19
2224.00,0.19
2223.00,0.19
2222.00,0.19
2221.00,0.19
2220.00,0.19
2219.00,0.19
2218.00,0.18
2217.00,0.18
2216.00,0.18
2215.00,0.18
2214.00,0.18
2213.00,0.18
2212.00,0.18
2211.00,0.18
2210.00,0.18
2209.00,0.18
2208.00,0.18
2207.00,0.18
2206.00,0.17
2205.00,0.17
2204.00,0.17
2203.00,0.17
2202.00,0.17
2201.00,0.17
2200.00,0.17
2199.00,0.17
2198.00,0.17
2197.00,0.17
2196.00,0.17
2195.00,0.18
2194.00,0.18
2193.00,0.18
2192.00,0.18
2191.00,0.18
2190.00,0.18
2189.00,0.18
2188.00,0.18
2187.00,0.18
2186.00,0.18
2185.00,0.18
2184.00,0.19
2183.00,0.19
2182.00,0.19
2181.00,0.19
2180.00,0.19
2179.00,0.19
2178.00,0.19
2177.00,0.20
2176.00,0.20
2175.00,0.20
2174.00,0.20
2173.00,0.20
2172.00,0.21
2171.00,0.21
2170.00,0.21
2169.00,0.22
2168.00,0.22
2167.00,0.22
2166.00,0.23
2165.00,0.23
2164.00,0.23
2163.00,0.24
2162.00,0.24
2161.00,0.25
2160.00,0.25
2159.00,0.26
2158.00,0.26
2157.00,0.27
2156.00,0.28
2155.00,0.29
2154.00,0.30
2153.00,0.30
2152.00,0.31
2151.00,0.32
2150.00,0.33
2149.00,0.35
2148.00,0.36
2147.00,0.37
2146.00,0.38
2145.00,0.40
2144.00,0.42
2143.00,0.43
2142.00,0.45
2141.00,0.48
2140.00,0.50
2139.00,0.52
2138.00,0.55
2137.00,0.58
2136.00,0.61
2135.00,0.64
2134.00,0.67
2133.00,0.71
2132.00,0.75
2131.00,0.79
2130.00,0.83
2129.00,0.88
2128.00,0.92
2127.00,0.98
2126.00,1.03
2125.00,1.09
2124.00,1.14
2123.00,1.21
2122.00,1.27
2121.00,1.33
2120.00,1.39
2119.00,1.46
2118.00,1.52
2117.00,1.59
2116.00,1.65
2115.00,1.72
2114.00,1.78
2113.00,1.85
2112.00,1.92
2111.00,1.99
2110.00,2.06
2109.00,2.13
2108.00,2.20
2107.00,2.27
2106.00,2.34
2105.00,2.41
2104.00,2.48
2103.00,2.55
2102.00,2.62
2101.00,2.69
2100.00,2.76
2099.00,2.83
2098.00,2.90
2097.00,2.97
2096.00,3.03
2095.00,3.10
2094.00,3.17
2093.00,3.23
2092.00,3.29
2091.00,3.34
2090.00,3.39
2089.00,3.43
2088.00,3.46
2087.00,3.47
2086.00,3.47
2085.00,3.45
2084.00,3.40
2083.00,3.33
2082.00,3.24
2081.00,3.12
2080.00,2.99
2079.00,2.84
2078.00,2.68
2077.00,2.51
2076.00,2.35
2075.00,2.18
2074.00,2.02
2073.00,1.87
2072.00,1.73
2071.00,1.59
2070.00,1.47
2069.00,1.36
2068.00,1.25
2067.00,1.16
2066.00,1.08
2065.00,1.00
2064.00,0.94
2063.00,0.88
2062.00,0.83
2061.00,0.78
2060.00,0.74
2059.00,0.70
2058.00,0.66
2057.00,0.63
2056.00,0.60
2055.00,0.57
2054.00,0.54
2053.00,0.51
2052.00,0.49
2051.00,0.46
2050.00,0.44
2049.00,0.42
2048.00,0.40
2047.00,0.38
2046.00,0.36
2045.00,0.35
2044.00,0.34
2043.00,0.32
2042.00,0.31
2041.00,0.30
2040.00,0.29
2039.00,0.28
2038.00,0.27
2037.00,0.26
2036.00,0.25
2035.00,0.24
2034.00,0.24
2033.00,0.23
2032.00,0.22
2031.00,0.22
2030.00,0.21
2029.00,0.21
2028.00,0.20
2027.00,0.20
2026.00,0.19
2025.00,0.19
2024.00,0.18
2023.00,0.18
2022.00,0.17
2021.00,0.17
2020.00,0.17
2019.00,0.17
2018.00,0.16
2017.00,0.16
2016.00,0.16
2015.00,0.16
2014.00,0.15
2013.00,0.15
2012.00,0.15
2011.00,0.15
2010.00,0.14
2009.00,0.14
2008.00,0.14
2007.00,0.14
2006.00,0.13
2005.00,0.13
2004.00,0.13
2003.00,0.13
2002.00,0.13
2001.00,0.13
2000.00,0.13
1999.00,0.13
1998.00,0.12
1997.00,0.12
1996.00,0.12
1995.00,0.12
1994.00,0.12
1993.00,0.12
1992.00,0.12
1991.00,0.12
1990.00,0.12
1989.00,0.12
1988.00,0.12
1987.00,0.12
1986.00,0.12
1985.00,0.12
1984.00,0.12
1983.00,0.12
1982.00,0.12
1981.00,0.12
1980.00,0.12
1979.00,0.12
1978.00,0.12
1977.00,0.12
1976.00,0.12
1975.00,0.12
1974.00,0.12
1973.00,0.12
1972.00,0.12
1971.00,0.12
1970.00,0.12
1969.00,0.12
1968.00,0.12
1967.00,0.12
1966.00,0.12
1965.00,0.12
1964.00,0.12
1963.00,0.12
1962.00,0.12
1961.00,0.12
1960.00,0.12
1959.00,0.13
1958.00,0.13
1957.00,0.13
1956.00,0.13
1955.00,0.13
1954.00,0.13
1953.00,0.13
1952.00,0.14
1951.00,0.14
1950.00,0.14
1949.00,0.14
1948.00,0.14
1947.00,0.15
1946.00,0.15
1945.00,0.15
1944.00,0.15
1943.00,0.16
1942.00,0.16
1941.00,0.16
1940.00,0.17
1939.00,0.17
1938.00,0.17
1937.00,0.18
1936.00,0.18
1935.00,0.19
1934.00,0.19
1933.00,0.20
1932.00,0.21
1931.00,0.21
1930.00,0.22
1929.00,0.23
1928.00,0.23
1927.00,0.24
1926.00,0.25
1925.00,0.26
1924.00,0.27
1923.00,0.28
1922.00,0.30
1921.00,0.32
1920.00,0.33
1919.00,0.35
1918.00,0.37
1917.00,0.39
1916.00,0.41
1915.00,0.44
1914.00,0.46
1913.00,0.49
1912.00,0.52
1911.00,0.55
1910.00,0.59
1909.00,0.63
1908.00,0.67
1907.00,0.72
1906.00,0.77
1905.00,0.82
1904.00,0.87
1903.00,0.93
1902.00,0.98
1901.00,1.04
1900.00,1.10
1899.00,1.17
1898.00,1.23
1897.00,1.29
1896.00,1.35
1895.00,1.42
1894.00,1.49
1893.00,1.56
1892.00,1.63
1891.00,1.69
1890.00,1.76
1889.00,1.83
1888.00,1.89
1887.00,1.95
1886.00,2.00
1885.00,2.04
1884.00,2.10
1883.00,2.15
1882.00,2.20
1881.00,2.24
1880.00,2.27
1879.00,2.30
1878.00,2.33
1877.00,2.34
1876.00,2.34
1875.00,2.33
1874.00,2.31
1873.00,2.29
1872.00,2.26
1871.00,2.21
1870.00,2.15
1869.00,2.07
1868.00,1.99
1867.00,1.91
1866.00,1.82
1865.00,1.73
1864.00,1.62
1863.00,1.52
1862.00,1.41
1861.00,1.30
1860.00,1.20
1859.00,1.10
1858.00,1.00
1857.00,0.92
1856.00,0.84
1855.00,0.77
1854.00,0.70
1853.00,0.64
1852.00,0.59
1851.00,0.54
1850.00,0.50
1849.00,0.46
1848.00,0.43
1847.00,0.41
1846.00,0.39
1845.00,0.36
1844.00,0.34
1843.00,0.31
1842.00,0.29
1841.00,0.27
1840.00,0.25
1839.00,0.24
1838.00,0.23
1837.00,0.22
1836.00,0.21
1835.00,0.20
1834.00,0.19
1833.00,0.19
1832.00,0.18
1831.00,0.17
1830.00,0.17
1829.00,0.16
1828.00,0.15
1827.00,0.15
1826.00,0.14
1825.00,0.14
1824.00,0.13
1823.00,0.13
1822.00,0.12
1821.00,0.12
1820.00,0.12
1819.00,0.11
1818.00,0.11
1817.00,0.11
1816.00,0.11
1815.00,0.10
1814.00,0.10
1813.00,0.10
1812.00,0.10
1811.00,0.10
1810.00,0.09
1809.00,0.09
1808.00,0.09
1807.00,0.09
1806.00,0.09
1805.00,0.09
1804.00,0.09
1803.00,0.09
1802.00,0.09
1801.00,0.08
1800.00,0.08
1799.00,0.08
1798.00,0.08
1797.00,0.08
1796.00,0.08
1795.00,0.08
1794.00,0.08
1793.00,0.08
1792.00,0.08
1791.00,0.08
1790.00,0.08
1789.00,0.08
1788.00,0.08
1787.00,0.08
1786.00,0.08
1785.00,0.08
1784.00,0.08
1783.00,0.08
1782.00,0.08
1781.00,0.08
1780.00,0.08
1779.00,0.08
1778.00,0.08
1777.00,0.08
1776.00,0.09
1775.00,0.09
1774.00,0.09
1773.00,0.09
1772.00,0.10
1771.00,0.10
1770.00,0.10
1769.00,0.10
1768.00,0.10
1767.00,0.10
1766.00,0.10
1765.00,0.10
1764.00,0.11
1763.00,0.11
1762.00,0.12
1761.00,0.13
1760.00,0.13
1759.00,0.14
1758.00,0.15
1757.00,0.17
1756.00,0.18
1755.00,0.19
1754.00,0.20
1753.00,0.22
1752.00,0.23
1751.00,0.24
1750.00,0.25
1749.00,0.26
1748.00,0.28
1747.00,0.29
1746.00,0.30
1745.00,0.31
1744.00,0.31
1743.00,0.30
1742.00,0.28
1741.00,0.26
1740.00,0.22
1739.00,0.18
1738.00,0.15
1737.00,0.12
1736.00,0.10
1735.00,0.08
1734.00,0.06
1733.00,0.05
1732.00,0.04
1731.00,0.03
1730.00,0.03
1729.00,0.02
1728.00,0.02
1727.00,0.01
1726.00,0.01
1725.00,0.01
1724.00,0.01
1723.00,0.00
1722.00,0.00
1721.00,0.00
1720.00,0.00
1719.00,0.00
1718.00,0.00
1717.00,0.00
1716.00,0.00
1715.00,0.00
1714.00,0.00
1713.00,0.00
1712.00,0.00
1711.00,0.00
1710.00,0.00
1709.00,0.00
1708.00,0.00
1707.00,0.00
1706.00,0.00
1705.00,0.00
1704.00,0.00
1703.00,0.00
1702.00,0.00
1701.00,0.00
1700.00,0.01
1699.00,0.01
1698.00,0.02
1697.00,0.03
1696.00,0.04
1695.00,0.06
1694.00,0.08
1693.00,0.10
1692.00,0.12
1691.00,0.14
1690.00,0.16
1689.00,0.17
1688.00,0.18
1687.00,0.17
1686.00,0.16
1685.00,0.15
1684.00,0.13
1683.00,0.12
1682.00,0.10
1681.00,0.09
1680.00,0.08
1679.00,0.08
1678.00,0.07
1677.00,0.07
1676.00,0.07
1675.00,0.07
1674.00,0.07
1673.00,0.07
1672.00,0.07
1671.00,0.07
1670.00,0.07
1669.00,0.06
1668.00,0.06
1667.00,0.06
1666.00,0.06
1665.00,0.06
1664.00,0.06
1663.00,0.06
1662.00,0.07
1661.00,0.06
1660.00,0.06
1659.00,0.06
1658.00,0.07
1657.00,0.07
1656.00,0.07
1655.00,0.08
1654.00,0.08
1653.00,0.08
1652.00,0.08
1651.00,0.08
1650.00,0.08
1649.00,0.08
1648.00,0.08
1647.00,0.09
1646.00,0.09
1645.00,0.09
1644.00,0.09
1643.00,0.09
1642.00,0.09
1641.00,0.10
1640.00,0.10
1639.00,0.11
1638.00,0.11
1637.00,0.12
1636.00,0.13
1635.00,0.13
1634.00,0.14
1633.00,0.13
1632.00,0.14
1631.00,0.14
1630.00,0.15
1629.00,0.15
1628.00,0.16
1627.00,0.18
1626.00,0.19
1625.00,0.21
1624.00,0.22
1623.00,0.25
1622.00,0.27
1621.00,0.29
1620.00,0.31
1619.00,0.34
1618.00,0.37
1617.00,0.40
1616.00,0.45
1615.00,0.49
1614.00,0.52
1613.00,0.55
1612.00,0.58
1611.00,0.62
1610.00,0.66
1609.00,0.70
1608.00,0.75
1607.00,0.81
1606.00,0.87
1605.00,0.92
1604.00,0.98
1603.00,1.04
1602.00,1.10
1601.00,1.15
1600.00,1.21
1599.00,1.26
1598.00,1.30
1597.00,1.34
1596.00,1.36
1595.00,1.39
1594.00,1.40
1593.00,1.39
1592.00,1.37
1591.00,1.33
1590.00,1.29
1589.00,1.24
1588.00,1.18
1587.00,1.13
1586.00,1.07
1585.00,1.00
1584.00,0.93
1583.00,0.86
1582.00,0.79
1581.00,0.72
1580.00,0.66
1579.00,0.60
1578.00,0.54
1577.00,0.49
1576.00,0.45
1575.00,0.41
1574.00,0.38
1573.00,0.35
1572.00,0.33
1571.00,0.31
1570.00,0.28
1569.00,0.26
1568.00,0.24
1567.00,0.22
1566.00,0.21
1565.00,0.19
1564.00,0.18
1563.00,0.18
1562.00,0.17
1561.00,0.18
1560.00,0.17
1559.00,0.17
1558.00,0.14
1557.00,0.12
1556.00,0.12
1555.00,0.11
1554.00,0.11
1553.00,0.10
1552.00,0.10
1551.00,0.10
1550.00,0.09
1549.00,0.09
1548.00,0.09
1547.00,0.09
1546.00,0.08
1545.00,0.08
1544.00,0.08
1543.00,0.08
1542.00,0.08
1541.00,0.08
1540.00,0.08
1539.00,0.07
1538.00,0.07
1537.00,0.07
1536.00,0.07
1535.00,0.06
1534.00,0.06
1533.00,0.06
1532.00,0.06
1531.00,0.06
1530.00,0.06
1529.00,0.06
1528.00,0.06
1527.00,0.06
1526.00,0.06
1525.00,0.06
1524.00,0.06
1523.00,0.05
1522.00,0.05
1521.00,0.05
1520.00,0.05
1519.00,0.05
1518.00,0.05
1517.00,0.05
1516.00,0.05
1515.00,0.05
1514.00,0.05
1513.00,0.05
1512.00,0.05
1511.00,0.05
1510.00,0.05
1509.00,0.05
1508.00,0.05
1507.00,0.05
1506.00,0.05
1505.00,0.05
1504.00,0.05
1503.00,0.04
1502.00,0.04
1501.00,0.04
1500.00,0.04
1499.00,0.04
1498.00,0.05
1497.00,0.05
1496.00,0.05
1495.00,0.05
1494.00,0.05
1493.00,0.05
1492.00,0.05
1491.00,0.05
1490.00,0.05
1489.00,0.05
1488.00,0.05
1487.00,0.05
1486.00,0.05
1485.00,0.05
1484.00,0.05
1483.00,0.05
1482.00,0.05
1481.00,0.05
1480.00,0.05
1479.00,0.05
1478.00,0.05
1477.00,0.05
1476.00,0.06
1475.00,0.06
1474.00,0.06
1473.00,0.06
1472.00,0.07
1471.00,0.07
1470.00,0.07
1469.00,0.07
1468.00,0.07
1467.00,0.07
1466.00,0.07
1465.00,0.07
1464.00,0.07
1463.00,0.07
1462.00,0.07
1461.00,0.07
1460.00,0.07
1459.00,0.08
1458.00,0.08
1457.00,0.08
1456.00,0.07
1455.00,0.06
1454.00,0.05
1453.00,0.04
1452.00,0.03
1451.00,0.02
1450.00,0.02
1449.00,0.02
1448.00,0.02
1447.00,0.02
1446.00,0.02
1445.00,0.03
1444.00,0.03
1443.00,0.04
1442.00,0.04
1441.00,0.05
1440.00,0.05
1439.00,0.05
1438.00,0.06
1437.00,0.06
1436.00,0.06
1435.00,0.06
1434.00,0.06
1433.00,0.05
1432.00,0.05
1431.00,0.05
1430.00,0.04
1429.00,0.04
1428.00,0.04
1427.00,0.04
1426.00,0.04
1425.00,0.04
1424.00,0.04
1423.00,0.04
1422.00,0.04
1421.00,0.04
1420.00,0.04
1419.00,0.04
1418.00,0.04
1417.00,0.04
1416.00,0.04
1415.00,0.05
1414.00,0.05
1413.00,0.06
1412.00,0.06
1411.00,0.07
1410.00,0.07
1409.00,0.08
1408.00,0.09
1407.00,0.10
1406.00,0.11
1405.00,0.12
1404.00,0.13
1403.00,0.14
1402.00,0.15
1401.00,0.17
1400.00,0.19
1399.00,0.21
1398.00,0.23
1397.00,0.26
1396.00,0.28
1395.00,0.31
1394.00,0.35
1393.00,0.38
1392.00,0.41
1391.00,0.44
1390.00,0.48
1389.00,0.52
1388.00,0.56
1387.00,0.59
1386.00,0.63
1385.00,0.66
1384.00,0.68
1383.00,0.71
1382.00,0.73
1381.00,0.74
1380.00,0.74
1379.00,0.73
1378.00,0.72
1377.00,0.70
1376.00,0.66
1375.00,0.62
1374.00,0.58
1373.00,0.53
1372.00,0.47
1371.00,0.42
1370.00,0.37
1369.00,0.33
1368.00,0.29
1367.00,0.26
1366.00,0.23
1365.00,0.20
1364.00,0.18
1363.00,0.16
1362.00,0.15
1361.00,0.13
1360.00,0.12
1359.00,0.10
1358.00,0.09
1357.00,0.08
1356.00,0.07
1355.00,0.07
1354.00,0.06
1353.00,0.06
1352.00,0.05
1351.00,0.04
1350.00,0.04
1349.00,0.03
1348.00,0.03
1347.00,0.03
1346.00,0.04
1345.00,0.04
1344.00,0.04
1343.00,0.04
1342.00,0.04
1341.00,0.04
1340.00,0.03
1339.00,0.03
1338.00,0.03
1337.00,0.04
1336.00,0.04
1335.00,0.05
1334.00,0.05
1333.00,0.05
1332.00,0.05
1331.00,0.05
1330.00,0.05
1329.00,0.04
1328.00,0.04
1327.00,0.04
1326.00,0.04
1325.00,0.03
1324.00,0.03
1323.00,0.03
1322.00,0.03
1321.00,0.03
1320.00,0.02
1319.00,0.02
1318.00,0.02
1317.00,0.02
1316.00,0.02
1315.00,0.01
1314.00,0.01
1313.00,0.01
1312.00,0.01
1311.00,0.01
1310.00,0.01
1309.00,0.02
1308.00,0.02
1307.00,0.03
1306.00,0.04
1305.00,0.04
1304.00,0.04
1303.00,0.04
1302.00,0.04
1301.00,0.04
1300.00,0.04
1299.00,0.04
1298.00,0.04
1297.00,0.04
1296.00,0.04
1295.00,0.04
1294.00,0.03
1293.00,0.03
1292.00,0.03
1291.00,0.03
1290.00,0.03
1289.00,0.03
1288.00,0.03
1287.00,0.03
1286.00,0.03
1285.00,0.03
1284.00,0.03
1283.00,0.03
1282.00,0.02
1281.00,0.02
1280.00,0.02
1279.00,0.02
1278.00,0.02
1277.00,0.02
1276.00,0.02
1275.00,0.02
1274.00,0.02
1273.00,0.02
1272.00,0.02
1271.00,0.02
1270.00,0.02
1269.00,0.02
1268.00,0.02
1267.00,0.02
1266.00,0.02
1265.00,0.02
1264.00,0.02
1263.00,0.02
1262.00,0.02
1261.00,0.02
1260.00,0.02
1259.00,0.02
1258.00,0.02
1257.00,0.02
1256.00,0.02
1255.00,0.02
1254.00,0.02
1253.00,0.02
1252.00,0.02
1251.00,0.02
1250.00,0.02
1249.00,0.02
1248.00,0.02
1247.00,0.02
1246.00,0.02
1245.00,0.02
1244.00,0.02
1243.00,0.02
1242.00,0.02
1241.00,0.02
1240.00,0.02
1239.00,0.02
1238.00,0.02
1237.00,0.02
1236.00,0.02
1235.00,0.03
1234.00,0.03
1233.00,0.03
1232.00,0.02
1231.00,0.02
1230.00,0.02
1229.00,0.02
1228.00,0.02
1227.00,0.02
1226.00,0.01
1225.00,0.01
1224.00,0.01
1223.00,0.01
1222.00,0.00
1221.00,0.01
1220.00,0.01
1219.00,0.01
1218.00,0.01
1217.00,0.01
1216.00,0.01
1215.00,0.01
1214.00,0.02
1213.00,0.02
1212.00,0.02
1211.00,0.02
1210.00,0.02
1209.00,0.02
1208.00,0.02
1207.00,0.02
1206.00,0.02
1205.00,0.02
1204.00,0.02
1203.00,0.02
1202.00,0.02
1201.00,0.02
1200.00,0.02
1199.00,0.02
1198.00,0.02
1197.00,0.02
1196.00,0.03
1195.00,0.03
1194.00,0.03
1193.00,0.03
1192.00,0.03
1191.00,0.03
1190.00,0.03
1189.00,0.03
1188.00,0.04
1187.00,0.04
1186.00,0.04
1185.00,0.04
1184.00,0.05
1183.00,0.05
1182.00,0.05
1181.00,0.05
1180.00,0.06
1179.00,0.06
1178.00,0.06
1177.00,0.07
1176.00,0.07
1175.00,0.08
1174.00,0.09
1173.00,0.10
1172.00,0.10
1171.00,0.11
1170.00,0.12
1169.00,0.13
1168.00,0.14
1167.00,0.16
1166.00,0.17
1165.00,0.18
1164.00,0.20
1163.00,0.21
1162.00,0.22
1161.00,0.23
1160.00,0.24
1159.00,0.25
1158.00,0.27
1157.00,0.28
1156.00,0.29
1155.00,0.29
1154.00,0.30
1153.00,0.30
1152.00,0.30
1151.00,0.29
1150.00,0.29
1149.00,0.27
1148.00,0.26
1147.00,0.24
1146.00,0.22
1145.00,0.19
1144.00,0.17
1143.00,0.15
1142.00,0.13
1141.00,0.12
1140.00,0.10
1139.00,0.09
1138.00,0.07
1137.00,0.06
1136.00,0.05
1135.00,0.05
1134.00,0.04
1133.00,0.04
1132.00,0.03
1131.00,0.03
1130.00,0.03
1129.00,0.02
1128.00,0.02
1127.00,0.01
1126.00,0.01
1125.00,0.01
1124.00,0.01
1123.00,0.01
1122.00,0.01
1121.00,0.00
1120.00,0.00
1119.00,0.00
1118.00,0.01
1117.00,0.01
1116.00,0.01
1115.00,0.02
1114.00,0.03
1113.00,0.03
1112.00,0.04
1111.00,0.05
1110.00,0.05
1109.00,0.05
1108.00,0.05
1107.00,0.05
1106.00,0.04
1105.00,0.04
1104.00,0.04
1103.00,0.04
1102.00,0.03
1101.00,0.03
1100.00,0.03
1099.00,0.03
1098.00,0.03
1097.00,0.02
1096.00,0.02
1095.00,0.02
1094.00,0.02
1093.00,0.02
1092.00,0.02
1091.00,0.02
1090.00,0.01
1089.00,0.01
1088.00,0.01
1087.00,0.01
1086.00,0.01
1085.00,0.01
1084.00,0.01
1083.00,0.01
1082.00,0.01
1081.00,0.01
1080.00,0.01
1079.00,0.00
1078.00,0.00
1077.00,0.00
1076.00,0.00
1075.00,0.01
1074.00,0.01
1073.00,0.00
1072.00,0.00
1071.00,0.01
1070.00,0.00
1069.00,0.00
1068.00,0.01
1067.00,0.01
1066.00,0.01
1065.00,0.01
1064.00,0.01
1063.00,0.01
1062.00,0.01
1061.00,0.01
1060.00,0.01
1059.00,0.00
1058.00,0.00
1057.00,0.00
1056.00,0.01
1055.00,0.01
1054.00,0.01
1053.00,0.01
1052.00,0.01
1051.00,0.01
1050.00,0.00
1049.00,0.00
1048.00,0.00
1047.00,0.00
1046.00,0.00
1045.00,0.00
1044.00,0.00
1043.00,0.01
1042.00,0.01
1041.00,0.01
1040.00,0.01
1039.00,0.01
1038.00,0.01
1037.00,0.01
1036.00,0.01
1035.00,0.01
1034.00,0.01
1033.00,0.01
1032.00,0.01
1031.00,0.01
1030.00,0.01
1029.00,0.01
1028.00,0.01
1027.00,0.01
1026.00,0.01
1025.00,0.01
1024.00,0.01
1023.00,0.00
1022.00,0.00
1021.00,0.00
1020.00,0.01
1019.00,0.01
1018.00,0.01
1017.00,0.01
1016.00,0.00
1015.00,0.00
1014.00,0.01
1013.00,0.01
1012.00,0.01
1011.00,0.01
1010.00,0.01
1009.00,0.01
1008.00,0.01
1007.00,0.01
1006.00,0.01
1005.00,0.01
1004.00,0.01
1003.00,0.01
1002.00,0.00
1001.00,0.00
1000.00,0.00
999.00,0.00
998.00,0.00
997.00,0.00
996.00,0.00
995.00,0.00
994.00,0.00
993.00,0.00
992.00,0.00
991.00,0.00
990.00,0.00
989.00,0.00
988.00,0.00
987.00,0.00
986.00,0.01
985.00,0.01
984.00,0.01
983.00,0.00
982.00,0.00
981.00,0.01
980.00,0.01
979.00,0.01
978.00,0.01
977.00,0.00
976.00,0.00
975.00,0.00
974.00,0.00
973.00,0.00
972.00,0.01
971.00,0.01
970.00,0.01
969.00,0.01
968.00,0.01
967.00,0.01
966.00,0.00
965.00,0.00
964.00,0.00
963.00,0.00
962.00,0.00
961.00,0.00
960.00,0.00
959.00,0.00
958.00,0.00
957.00,0.00
956.00,0.00
955.00,0.00
954.00,0.00
953.00,0.00
952.00,0.00
951.00,0.01
950.00,0.01
949.00,0.01
948.00,0.01
947.00,0.00
946.00,0.00
945.00,0.00
944.00,0.00
943.00,0.00
942.00,0.00
941.00,0.00
940.00,0.00
939.00,0.00
938.00,0.00
937.00,0.00
936.00,0.00
935.00,0.00
934.00,0.00
933.00,0.00
932.00,0.01
931.00,0.01
930.00,0.01
929.00,0.01
928.00,0.01
927.00,0.00
926.00,0.00
925.00,0.00
924.00,0.00
923.00,0.01
922.00,0.01
921.00,0.01
920.00,0.01
919.00,0.01
918.00,0.01
917.00,0.00
916.00,0.00
915.00,0.00
914.00,0.00
913.00,0.00
912.00,0.00
911.00,0.00
910.00,0.00
909.00,0.00
908.00,0.00
907.00,0.00
906.00,0.00
905.00,0.01
904.00,0.01
903.00,0.01
902.00,0.01
901.00,0.01
900.00,0.01
899.00,0.01
898.00,0.00
897.00,0.00
896.00,0.00
895.00,0.00
894.00,0.00
893.00,0.00
892.00,0.00
891.00,0.00
890.00,0.00
889.00,0.00
888.00,0.00
887.00,0.01
886.00,0.01
885.00,0.01
884.00,0.01
883.00,0.01
882.00,0.01
881.00,0.01
880.00,0.01
879.00,0.01
878.00,0.00
877.00,0.00
876.00,0.00
875.00,0.00
874.00,0.00
873.00,0.00
872.00,0.00
871.00,0.00
870.00,0.00
869.00,0.00
868.00,0.00
867.00,0.00
866.00,0.01
865.00,0.01
864.00,0.01
863.00,0.01
862.00,0.01
861.00,0.01
860.00,0.01
859.00,0.01
858.00,0.01
857.00,0.00
856.00,0.00
855.00,0.00
854.00,0.00
853.00,0.00
852.00,0.01
851.00,0.01
850.00,0.00
849.00,0.00
848.00,0.00
847.00,0.01
846.00,0.01
845.00,0.01
844.00,0.01
843.00,0.01
842.00,0.01
841.00,0.01
840.00,0.01
839.00,0.01
838.00,0.01
837.00,0.01
836.00,0.00
835.00,0.00
834.00,0.00
833.00,0.00
832.00,0.00
831.00,0.00
830.00,0.00
829.00,0.00
828.00,0.00
827.00,0.01
826.00,0.01
825.00,0.01
824.00,0.01
823.00,0.01
822.00,0.01
821.00,0.01
820.00,0.01
819.00,0.01
818.00,0.00
817.00,0.00
816.00,0.00
815.00,0.00
814.00,0.00
813.00,0.00
812.00,0.00
811.00,0.00
810.00,0.00
809.00,0.00
808.00,0.00
807.00,0.00
806.00,0.00
805.00,0.00
804.00,0.00
803.00,0.00
802.00,0.00
801.00,0.00
800.00,0.01
799.00,0.01
798.00,0.01
797.00,0.01
796.00,0.00
795.00,0.01
794.00,0.01
793.00,0.01
792.00,0.01
791.00,0.01
790.00,0.01
789.00,0.00
788.00,0.00
787.00,0.00
786.00,0.00
785.00,0.00
784.00,0.00
783.00,0.00
782.00,0.00
781.00,0.00
780.00,0.01
779.00,0.01
778.00,0.01
777.00,0.00
776.00,0.00
775.00,0.01
774.00,0.01
773.00,0.00
772.00,0.00
771.00,0.00
770.00,0.00
769.00,0.01
768.00,0.01
767.00,0.00
766.00,0.00
765.00,0.00
764.00,0.00
763.00,0.00
762.00,0.01
761.00,0.01
760.00,0.00
759.00,0.00
758.00,0.00
757.00,0.01
756.00,0.01
755.00,0.01
754.00,0.01
753.00,0.00
752.00,0.00
751.00,0.01
750.00,0.01
749.00,0.01
748.00,0.00
747.00,0.00
746.00,0.00
745.00,0.00
744.00,0.00
743.00,0.00
742.00,0.00
741.00,0.00
740.00,0.00
739.00,0.00
738.00,0.00
737.00,0.00
736.00,0.00
735.00,0.00
734.00,0.00
733.00,0.00
732.00,0.00
731.00,0.00
730.00,0.01
729.00,0.01
728.00,0.01
727.00,0.00
726.00,0.00
725.00,0.00
724.00,0.00
723.00,0.00
722.00,0.00
721.00,0.00
720.00,0.00
719.00,0.00
718.00,0.00
717.00,0.00
716.00,0.00
715.00,0.01
714.00,0.01
713.00,0.00
712.00,0.00
711.00,0.00
710.00,0.00
709.00,0.00
708.00,0.00
707.00,0.00
706.00,0.01
705.00,0.01
704.00,0.01
703.00,0.01
702.00,0.00
701.00,0.00
700.00,0.00
699.00,0.00
698.00,0.00
697.00,0.00
696.00,0.01
695.00,0.01
694.00,0.01
693.00,0.01
692.00,0.01
691.00,0.01
690.00,0.01
689.00,0.01
688.00,0.01
687.00,0.01
686.00,0.01
685.00,0.01
684.00,0.01
683.00,0.01
682.00,0.01
681.00,0.00
680.00,0.00
679.00,0.00
678.00,0.00
677.00,0.00
676.00,0.00
675.00,0.01
674.00,0.01
673.00,0.01
672.00,0.01
671.00,0.01
670.00,0.01
669.00,0.00
668.00,0.00
667.00,0.00
666.00,0.00
665.00,0.00
664.00,0.01
663.00,0.01
662.00,0.01
661.00,0.01
660.00,0.00
659.00,0.00
658.00,0.00
657.00,0.00
656.00,0.00
655.00,0.01
654.00,0.01
653.00,0.00
652.00,0.01
651.00,0.02
650.00,0.02
649.00,0.02
648.00,0.02
647.00,0.02
646.00,0.02
645.00,0.02
644.00,0.01
643.00,0.00
642.00,0.00
641.00,0.01
640.00,0.01
639.00,0.00
638.00,0.00
637.00,0.01
636.00,0.01
635.00,0.01
634.00,0.01
633.00,0.01
632.00,0.02
631.00,0.02
630.00,0.02
629.00,0.01
628.00,0.01
627.00,0.01
626.00,0.01
625.00,0.01
624.00,0.01
623.00,0.01
622.00,0.01
621.00,0.01
620.00,0.02
619.00,0.02
618.00,0.02
617.00,0.02
616.00,0.02
615.00,0.02
614.00,0.01
613.00,0.01
612.00,0.00
611.00,0.00
610.00,0.01
609.00,0.01
608.00,0.01
607.00,0.01
606.00,0.01
605.00,0.01
604.00,0.01
603.00,0.00
602.00,0.00
601.00,0.01
600.00,0.01
599.00,0.00
598.00,0.01
597.00,0.01
596.00,0.01
595.00,0.02
594.00,0.01
593.00,0.01
592.00,0.01
591.00,0.01
590.00,0.01
589.00,0.01
588.00,0.01
587.00,0.00
586.00,0.01
585.00,0.01
584.00,0.01
583.00,0.01
582.00,0.01
581.00,0.01
580.00,0.00
579.00,0.01
578.00,0.01
577.00,0.01
576.00,0.01
575.00,0.01
574.00,0.01
573.00,0.01
572.00,0.01
571.00,0.01
570.00,0.01
569.00,0.01
568.00,0.01
567.00,0.00
566.00,0.01
565.00,0.01
564.00,0.01
563.00,0.01
562.00,0.01
561.00,0.01
560.00,0.02
559.00,0.02
558.00,0.02
557.00,0.01
556.00,0.00
555.00,0.01
554.00,0.01
553.00,0.02
552.00,0.02
551.00,0.02
550.00,0.02
549.00,0.01
548.00,0.01
547.00,0.01
546.00,0.01
545.00,0.01
544.00,0.01
543.00,0.02
542.00,0.01
541.00,0.01
540.00,0.00
539.00,0.01
538.00,0.01
537.00,0.01
536.00,0.00
535.00,0.01
534.00,0.01
533.00,0.01
532.00,0.00
531.00,0.01
530.00,0.01
529.00,0.01
528.00,0.01
527.00,0.02
526.00,0.02
525.00,0.02
524.00,0.01
523.00,0.01
522.00,0.01
521.00,0.02
520.00,0.03
519.00,0.03
518.00,0.02
517.00,0.01
516.00,0.01
515.00,0.01
514.00,0.01
513.00,0.02
512.00,0.02
511.00,0.03
510.00,0.02
509.00,0.02
508.00,0.01
507.00,0.01
506.00,0.00
505.00,0.00
504.00,0.01
503.00,0.01
502.00,0.01
501.00,0.01
500.00,0.03
499.00,0.03
498.00,0.03
497.00,0.02
496.00,0.01
495.00,0.01
494.00,0.02
493.00,0.02
492.00,0.02
491.00,0.02
490.00,0.01
489.00,0.02
488.00,0.02
487.00,0.02
486.00,0.02
485.00,0.02
484.00,0.03
483.00,0.05
482.00,0.07
481.00,0.08
480.00,0.07
479.00,0.05
478.00,0.03
477.00,0.02
476.00,0.01
475.00,0.00
474.00,0.00
473.00,0.02
472.00,0.04
471.00,0.06
470.00,0.08
469.00,0.10
468.00,0.10
467.00,0.09
466.00,0.08
465.00,0.08
464.00,0.06
463.00,0.05
462.00,0.03
461.00,0.03
460.00,0.05
459.00,0.06
458.00,0.07
457.00,0.09
456.00,0.10
455.00,0.11
454.00,0.11
453.00,0.08
452.00,0.06
451.00,0.04
450.00,0.04
449.00,0.06
448.00,0.07
447.00,0.08
446.00,0.10
445.00,0.11
444.00,0.11
443.00,0.10
442.00,0.06
441.00,0.02
440.00,0.01
439.00,0.02
438.00,0.02
437.00,0.02
436.00,0.03
435.00,0.03
434.00,0.04
433.00,0.03
432.00,0.02
431.00,0.03
430.00,0.06
429.00,0.07
428.00,0.05
427.00,0.06
426.00,0.06
425.00,0.05
424.00,0.04
423.00,0.05
422.00,0.07
421.00,0.10
420.00,0.11
419.00,0.12
418.00,0.11
417.00,0.11
416.00,0.12
415.00,0.10
414.00,0.07
413.00,0.08
412.00,0.13
411.00,0.15
410.00,0.13
409.00,0.12
408.00,0.13
407.00,0.17
406.00,0.20
405.00,0.23
404.00,0.25
403.00,0.29
402.00,0.34
401.00,0.36
400.00,0.31
